1679211919225,303,2
1679211919232,302,2
1679211919239,294,2
1679211919246,291,2
1679211919254,293,2
1679211919261,293,2
1679211919269,297,2
1679211919276,298,2
1679211919283,296,2
1679211919291,297,2
1679211919298,301,2
1679211919306,303,2
1679211919313,303,2
1679211919321,294,2
1679211919328,288,2
1679211919335,294,2
1679211919343,292,2
1679211919350,287,2
1679211919358,298,2
1679211919365,303,2
1679211919372,301,2
1679211919380,298,2
1679211919387,301,2
1679211919395,302,2
1679211919402,297,2
1679211919409,289,2
1679211919417,292,2
1679211919424,295,2
1679211919432,295,2
1679211919439,296,2
1679211919446,295,2
1679211919454,301,2
1679211919461,302,2
1679211919469,303,2
1679211919476,302,2
1679211919483,297,2
1679211919491,295,2
1679211919498,292,2
1679211919506,293,2
1679211919513,293,2
1679211919520,298,2
1679211919528,303,2
1679211919535,305,2
1679211919543,307,2
1679211919550,306,2
1679211919558,302,2
1679211919565,293,2
1679211919572,291,2
1679211919580,291,2
1679211919587,298,2
1679211919595,302,2
1679211919602,305,2
1679211919609,303,2
1679211919617,302,2
1679211919624,302,2
1679211919632,295,2
1679211919639,292,2
1679211919646,297,2
1679211919654,297,2
1679211919661,301,2
1679211919669,304,2
1679211919676,303,2
1679211919683,300,2
1679211919691,298,2
1679211919698,291,2
1679211919706,289,2
1679211919713,293,2
1679211919721,302,2
1679211919728,305,2
1679211919735,304,2
1679211919743,303,2
1679211919750,301,2
1679211919758,302,2
1679211919765,302,2
1679211919772,295,2
1679211919780,295,2
1679211919787,293,2
1679211919795,297,2
1679211919802,298,2
1679211919809,295,2
1679211919817,299,2
1679211919824,299,2
1679211919832,303,2
1679211919839,300,2
1679211919846,303,2
1679211919854,304,2
1679211919861,300,2
1679211919869,298,2
1679211919876,301,2
1679211919884,298,2
1679211919891,299,2
1679211919898,302,2
1679211919906,303,2
1679211919913,304,2
1679211919921,301,2
1679211919928,293,2
1679211919935,297,2
1679211919943,300,2
1679211919950,300,2
1679211919958,299,2
1679211919965,302,2
1679211919972,300,2
1679211919980,302,2
1679211919987,299,2
1679211919995,299,2
1679211920002,301,2
1679211920010,302,2
1679211920017,298,2
1679211920024,302,2
1679211920032,302,2
1679211920039,300,2
1679211920047,299,2
1679211920054,302,2
1679211920061,303,2
1679211920069,304,2
1679211920076,303,2
1679211920084,302,2
1679211920091,298,2
1679211920098,292,2
1679211920106,299,2
1679211920113,296,2
1679211920121,301,2
1679211920128,305,2
1679211920135,307,2
1679211920143,306,2
1679211920150,305,2
1679211920158,304,2
1679211920165,299,2
1679211920172,293,2
1679211920180,291,2
1679211920187,296,2
1679211920195,298,2
1679211920202,302,2
1679211920210,304,2
1679211920217,306,2
1679211920224,306,2
1679211920232,305,2
1679211920239,303,2
1679211920247,298,2
1679211920254,294,2
1679211920261,291,2
1679211920269,295,2
1679211920276,297,2
1679211920284,300,2
1679211920291,304,2
1679211920298,305,2
1679211920306,306,2
1679211920313,305,2
1679211920321,300,2
1679211920328,290,2
1679211920335,291,2
1679211920343,292,2
1679211920350,295,2
1679211920358,296,2
1679211920365,303,2
1679211920373,308,2
1679211920380,309,2
1679211920387,308,2
1679211920395,307,2
1679211920402,305,2
1679211920410,301,2
1679211920417,297,2
1679211920424,297,2
1679211920432,297,2
1679211920439,299,2
1679211920447,299,2
1679211920454,301,2
1679211920461,301,2
1679211920469,299,2
1679211920476,295,2
1679211920484,298,2
1679211920491,298,2
1679211920498,294,2
1679211920506,296,2
1679211920513,299,2
1679211920521,301,2
1679211920528,303,2
1679211920536,303,2
1679211920543,300,2
1679211920550,299,2
1679211920558,300,2
1679211920565,296,2
1679211920573,298,2
1679211920580,299,2
1679211920587,298,2
1679211920595,301,2
1679211920602,300,2
1679211920610,300,2
1679211920617,298,2
1679211920624,299,2
1679211920632,297,2
1679211920639,301,2
1679211920647,299,2
1679211920654,298,2
1679211920661,299,2
1679211920669,300,2
1679211920676,302,2
1679211920684,302,2
1679211920691,301,2
1679211920699,296,2
1679211920706,299,2
1679211920713,301,2
1679211920721,303,2
1679211920728,301,2
1679211920735,299,2
1679211920743,302,2
1679211920750,303,2
1679211920758,303,2
1679211920765,301,2
1679211920773,298,2
1679211920780,293,2
1679211920787,291,2
1679211920795,293,2
1679211920802,295,2
1679211920810,302,2
1679211920817,306,2
1679211920824,307,2
1679211920832,306,2
1679211920839,304,2
1679211920847,303,2
1679211920854,301,2
1679211920861,297,2
1679211920869,297,2
1679211920876,292,2
1679211920884,294,2
1679211920891,298,2
1679211920899,301,2
1679211920906,303,2
1679211920913,304,2
1679211920921,306,2
1679211920928,305,2
1679211920936,305,2
1679211920943,301,2
1679211920950,294,2
1679211920958,297,2
1679211920965,291,2
1679211920973,296,2
1679211920980,300,2
1679211920987,305,2
1679211920995,306,2
1679211921002,307,2
1679211921010,306,2
1679211921017,306,2
1679211921025,304,2
1679211921032,298,2
1679211921039,291,2
1679211921047,294,2
1679211921054,299,2
1679211921061,302,2
1679211921069,303,2
1679211921076,304,2
1679211921084,304,2
1679211921091,302,2
1679211921099,303,2
1679211921106,302,2
1679211921113,302,2
1679211921121,300,2
1679211921128,300,2
1679211921136,297,2
1679211921143,300,2
1679211921150,300,2
1679211921158,303,2
1679211921165,300,2
1679211921173,302,2
1679211921180,305,2
1679211921188,306,2
1679211921195,304,2
1679211921202,304,2
1679211921210,304,2
1679211921217,305,2
1679211921225,304,2
1679211921232,304,2
1679211921239,304,2
1679211921247,303,2
1679211921254,293,2
1679211921262,294,2
1679211921269,295,2
1679211921276,299,2
1679211921284,299,2
1679211921291,304,2
1679211921299,308,2
1679211921306,310,2
1679211921313,308,2
1679211921321,307,2
1679211921328,306,2
1679211921336,305,2
1679211921343,302,2
1679211921350,298,2
1679211921358,302,2
1679211921365,304,2
1679211921373,303,2
1679211921380,301,2
1679211921388,301,2
1679211921395,304,2
1679211921402,303,2
1679211921410,302,2
1679211921417,301,2
1679211921425,303,2
1679211921432,305,2
1679211921439,304,2
1679211921447,300,2
1679211921454,301,2
1679211921462,303,2
1679211921469,302,2
1679211921476,303,2
1679211921484,301,2
1679211921491,301,2
1679211921499,301,2
1679211921506,301,2
1679211921513,303,2
1679211921521,304,2
1679211921528,302,2
1679211921536,300,2
1679211921543,298,2
1679211921550,293,2
1679211921558,293,2
1679211921565,300,2
1679211921573,303,2
1679211921580,305,2
1679211921588,305,2
1679211921595,303,2
1679211921602,300,2
1679211921610,298,2
1679211921617,296,2
1679211921625,297,2
1679211921632,298,2
1679211921639,298,2
1679211921647,302,2
1679211921654,305,2
1679211921662,305,2
1679211921669,303,2
1679211921676,299,2
1679211921684,298,2
1679211921691,295,2
1679211921699,294,2
1679211921706,299,2
1679211921713,304,2
1679211921721,304,2
1679211921728,302,2
1679211921736,302,2
1679211921743,300,2
1679211921750,301,2
1679211921758,301,2
1679211921765,298,2
1679211921773,293,2
1679211921780,295,2
1679211921788,300,2
1679211921795,301,2
1679211921802,302,2
1679211921810,301,2
1679211921817,297,2
1679211921825,299,2
1679211921832,301,2
1679211921840,297,2
1679211921847,299,2
1679211921854,300,2
1679211921862,301,2
1679211921869,299,2
1679211921876,296,2
1679211921884,294,2
1679211921891,295,2
1679211921899,297,2
1679211921906,297,2
1679211921914,300,2
1679211921921,302,2
1679211921928,303,2
1679211921936,303,2
1679211921943,301,2
1679211921951,299,2
1679211921958,294,2
1679211921966,291,2
1679211921973,291,2
1679211921980,296,2
1679211921988,299,2
1679211921995,301,2
1679211922003,303,2
1679211922010,303,2
1679211922018,302,2
1679211922027,301,2
1679211922032,295,2
1679211922040,293,2
1679211922047,296,2
1679211922055,297,2
1679211922062,297,2
1679211922069,299,2
1679211922076,300,2
1679211922084,298,2
1679211922091,294,2
1679211922099,294,2
1679211922106,296,2
1679211922114,297,2
1679211922121,297,2
1679211922128,292,2
1679211922136,299,2
1679211922143,302,2
1679211922151,298,2
1679211922158,302,2
1679211922165,303,2
1679211922173,303,2
1679211922180,302,2
1679211922188,301,2
1679211922195,300,2
1679211922202,296,2
1679211922210,288,2
1679211922217,292,2
1679211922225,297,2
1679211922232,300,2
1679211922240,302,2
1679211922247,303,2
1679211922254,302,2
1679211922262,300,2
1679211922269,298,2
1679211922277,295,2
1679211922284,292,2
1679211922291,294,2
1679211922299,295,2
1679211922306,299,2
1679211922314,302,2
1679211922321,303,2
1679211922328,301,2
1679211922336,298,2
1679211922343,299,2
1679211922351,294,2
1679211922358,291,2
1679211922365,293,2
1679211922373,298,2
1679211922380,296,2
1679211922388,300,2
1679211922395,301,2
1679211922402,302,2
1679211922410,300,2
1679211922417,299,2
1679211922425,296,2
1679211922432,291,2
1679211922440,289,2
1679211922447,295,2
1679211922454,294,2
1679211922462,297,2
1679211922469,299,2
1679211922477,301,2
1679211922484,301,2
1679211922491,299,2
1679211922499,298,2
1679211922506,294,2
1679211922514,290,2
1679211922521,290,2
1679211922528,287,2
1679211922536,288,2
1679211922543,295,2
1679211922551,300,2
1679211922558,301,2
1679211922565,301,2
1679211922573,301,2
1679211922580,300,2
1679211922588,298,2
1679211922595,294,2
1679211922603,290,2
1679211922610,288,2
1679211922617,290,2
1679211922625,291,2
1679211922632,296,2
1679211922640,298,2
1679211922647,297,2
1679211922654,297,2
1679211922662,297,2
1679211922669,296,2
1679211922677,293,2
1679211922684,292,2
1679211922692,292,2
1679211922699,295,2
1679211922706,296,2
1679211922714,297,2
1679211922721,297,2
1679211922728,295,2
1679211922736,293,2
1679211922743,292,2
1679211922751,291,2
1679211922758,285,2
1679211922765,293,2
1679211922773,296,2
1679211922780,295,2
1679211922788,298,2
1679211922795,300,2
1679211922803,299,2
1679211922810,297,2
1679211922817,296,2
1679211922825,291,2
1679211922832,290,2
1679211922840,295,2
1679211922847,297,2
1679211922855,300,2
1679211922862,302,2
1679211922869,302,2
1679211922877,300,2
1679211922884,298,2
1679211922892,296,2
1679211922899,293,2
1679211922906,290,2
1679211922914,296,2
1679211922921,299,2
1679211922929,299,2
1679211922936,297,2
1679211922943,297,2
1679211922951,297,2
1679211922958,297,2
1679211922966,299,2
1679211922973,297,2
1679211922980,294,2
1679211922988,296,2
1679211922995,296,2
1679211923003,298,2
1679211923010,295,2
1679211923017,293,2
1679211923025,298,2
1679211923032,298,2
1679211923040,298,2
1679211923047,301,2
1679211923055,303,2
1679211923062,304,2
1679211923069,302,2
1679211923077,299,2
1679211923084,292,2
1679211923092,297,2
1679211923099,296,2
1679211923106,295,2
1679211923114,296,2
1679211923121,300,2
1679211923129,302,2
1679211923136,302,2
1679211923143,302,2
1679211923151,303,2
1679211923158,303,2
1679211923166,297,2
1679211923173,290,2
1679211923180,299,2
1679211923188,300,2
1679211923195,302,2
1679211923203,305,2
1679211923210,305,2
1679211923217,305,2
1679211923225,305,2
1679211923232,302,2
1679211923240,301,2
1679211923247,301,2
1679211923255,300,2
1679211923262,301,2
1679211923269,302,2
1679211923277,304,2
1679211923284,305,2
1679211923292,306,2
1679211923299,303,2
1679211923306,304,2
1679211923314,302,2
1679211923321,300,2
1679211923329,303,2
1679211923336,306,2
1679211923343,305,2
1679211923351,305,2
1679211923358,305,2
1679211923366,304,2
1679211923373,302,2
1679211923380,304,2
1679211923388,300,2
1679211923395,304,2
1679211923403,305,2
1679211923410,305,2
1679211923417,307,2
1679211923425,307,2
1679211923432,307,2
1679211923440,307,2
1679211923447,306,2
1679211923455,303,2
1679211923462,304,2
1679211923469,307,2
1679211923477,307,2
1679211923484,305,2
1679211923492,308,2
1679211923499,311,2
1679211923506,312,2
1679211923514,310,2
1679211923521,308,2
1679211923529,308,2
1679211923536,306,2
1679211923543,306,2
1679211923551,307,2
1679211923558,308,2
1679211923566,307,2
1679211923573,308,2
1679211923580,309,2
1679211923588,310,2
1679211923595,311,2
1679211923603,311,2
1679211923610,309,2
1679211923618,302,2
1679211923625,304,2
1679211923632,308,2
1679211923640,310,2
1679211923647,309,2
1679211923655,301,2
1679211923662,304,2
1679211923669,308,2
1679211923677,312,2
1679211923684,312,2
1679211923692,312,2
1679211923699,309,2
1679211923706,309,2
1679211923714,309,2
1679211923721,308,2
1679211923729,302,2
1679211923736,299,2
1679211923743,303,2
1679211923751,305,2
1679211923758,309,2
1679211923766,312,2
1679211923773,311,2
1679211923781,311,2
1679211923788,309,2
1679211923795,305,2
1679211923803,302,2
1679211923810,301,2
1679211923818,303,2
1679211923825,306,2
1679211923832,308,2
1679211923840,310,2
1679211923847,310,2
1679211923855,307,2
1679211923862,305,2
1679211923870,305,2
1679211923877,306,2
1679211923884,305,2
1679211923892,297,2
1679211923899,300,2
1679211923907,306,2
1679211923914,309,2
1679211923921,308,2
1679211923929,305,2
1679211923936,301,2
1679211923944,303,2
1679211923951,303,2
1679211923958,302,2
1679211923966,302,2
1679211923973,304,2
1679211923981,305,2
1679211923988,304,2
1679211923995,303,2
1679211924003,300,2
1679211924010,303,2
1679211924018,304,2
1679211924025,302,2
1679211924032,300,2
1679211924040,301,2
1679211924047,302,2
1679211924055,301,2
1679211924062,297,2
1679211924069,301,2
1679211924077,304,2
1679211924084,304,2
1679211924092,300,2
1679211924099,300,2
1679211924107,301,2
1679211924114,299,2
1679211924121,297,2
1679211924129,294,2
1679211924136,293,2
1679211924144,294,2
1679211924151,298,2
1679211924158,298,2
1679211924166,299,2
1679211924173,300,2
1679211924181,299,2
1679211924188,296,2
1679211924195,295,2
1679211924203,295,2
1679211924210,297,2
1679211924218,297,2
1679211924225,296,2
1679211924232,295,2
1679211924240,295,2
1679211924247,296,2
1679211924255,294,2
1679211924262,298,2
1679211924269,297,2
1679211924277,296,2
1679211924284,297,2
1679211924292,298,2
1679211924299,299,2
1679211924307,297,2
1679211924314,295,2
1679211924321,292,2
1679211924329,294,2
1679211924336,296,2
1679211924344,295,2
1679211924351,297,2
1679211924358,298,2
1679211924366,298,2
1679211924373,301,2
1679211924381,302,2
1679211924388,300,2
1679211924395,296,2
1679211924403,295,2
1679211924410,293,2
1679211924418,292,2
1679211924425,292,2
1679211924433,295,2
1679211924440,297,2
1679211924447,298,2
1679211924455,299,2
1679211924462,302,2
1679211924470,298,2
1679211924477,294,2
1679211924484,297,2
1679211924492,300,2
1679211924499,295,2
1679211924507,293,2
1679211924514,293,2
1679211924521,297,2
1679211924529,295,2
1679211924536,297,2
1679211924544,298,2
1679211924551,299,2
1679211924559,295,2
1679211924566,294,2
1679211924573,295,2
1679211924581,297,2
1679211924588,301,2
1679211924595,298,2
1679211924603,300,2
1679211924610,297,2
1679211924618,296,2
1679211924625,292,2
1679211924633,291,2
1679211924640,293,2
1679211924647,298,2
1679211924655,301,2
1679211924662,301,2
1679211924670,301,2
1679211924677,301,2
1679211924684,299,2
1679211924692,288,2
1679211924699,284,2
1679211924707,291,2
1679211924714,293,2
1679211924721,293,2
1679211924729,295,2
1679211924736,297,2
1679211924744,297,2
1679211924751,290,2
1679211924759,297,2
1679211924766,300,2
1679211924773,296,2
1679211924781,294,2
1679211924788,293,2
1679211924796,290,2
1679211924803,289,2
1679211924810,289,2
1679211924818,294,2
1679211924825,292,2
1679211924833,292,2
1679211924840,291,2
1679211924847,291,2
1679211924855,290,2
1679211924862,294,2
1679211924870,292,2
1679211924877,290,2
1679211924884,293,2
1679211924892,296,2
1679211924899,294,2
1679211924907,290,2
1679211924914,290,2
1679211924922,294,2
1679211924929,293,2
1679211924936,292,2
1679211924944,288,2
1679211924951,294,2
1679211924959,291,2
1679211924966,291,2
1679211924973,294,2
1679211924981,289,2
1679211924988,288,2
1679211924996,292,2
1679211925003,291,2
1679211925010,292,2
1679211925018,295,2
1679211925025,296,2
1679211925033,294,2
1679211925040,292,2
1679211925047,286,2
1679211925055,286,2
1679211925062,289,2
1679211925070,290,2
1679211925077,292,2
1679211925085,288,2
1679211925092,289,2
1679211925099,293,2
1679211925107,291,2
1679211925114,291,2
1679211925122,294,2
1679211925129,292,2
1679211925136,289,2
1679211925144,290,2
1679211925151,294,2
1679211925159,293,2
1679211925166,289,2
1679211925174,293,2
1679211925181,293,2
1679211925188,294,2
1679211925196,293,2
1679211925203,292,2
1679211925210,291,2
1679211925218,292,2
1679211925225,292,2
1679211925233,288,2
1679211925240,292,2
1679211925248,290,2
1679211925255,292,2
1679211925262,292,2
1679211925270,291,2
1679211925277,292,2
1679211925285,293,2
1679211925292,288,2
1679211925299,288,2
1679211925307,288,2
1679211925314,290,2
1679211925322,289,2
1679211925329,285,2
1679211925336,286,2
1679211925344,292,2
1679211925351,293,2
1679211925359,292,2
1679211925366,294,2
1679211925374,293,2
1679211925381,284,2
1679211925388,283,2
1679211925396,287,2
1679211925403,291,2
1679211925410,288,2
1679211925418,287,2
1679211925425,293,2
1679211925433,294,2
1679211925440,292,2
1679211925447,293,2
1679211925455,294,2
1679211925462,292,2
1679211925470,288,2
1679211925477,285,2
1679211925485,282,2
1679211925492,288,2
1679211925499,290,2
1679211925507,293,2
1679211925514,292,2
1679211925522,291,2
1679211925529,294,2
1679211925536,292,2
1679211925544,289,2
1679211925551,289,2
1679211925559,293,2
1679211925566,292,2
1679211925573,287,2
1679211925581,288,2
1679211925588,291,2
1679211925596,291,2
1679211925603,293,2
1679211925611,286,2
1679211925618,288,2
1679211925625,289,2
1679211925633,293,2
1679211925640,296,2
1679211925648,298,2
1679211925655,297,2
1679211925662,289,2
1679211925667,280,2
1679211925671,280,2
1679211925676,280,2
1679211925684,282,2
1679211925691,291,2
1679211925698,299,2
1679211925706,301,2
1679211925713,301,2
1679211925721,300,2
1679211925728,298,2
1679211925736,290,2
1679211925742,281,2
1679211925750,288,2
1679211925757,293,2
1679211925764,294,2
1679211925772,297,2
1679211925779,296,2
1679211925787,293,2
1679211925794,292,2
1679211925801,294,2
1679211925809,289,2
1679211925816,288,2
1679211925824,292,2
1679211925831,297,2
1679211925838,299,2
1679211925846,297,2
1679211925853,297,2
1679211925861,295,2
1679211925868,294,2
1679211925876,287,2
1679211925883,292,2
1679211925890,295,2
1679211925898,297,2
1679211925905,299,2
1679211925913,298,2
1679211925920,299,2
1679211925928,299,2
1679211925935,297,2
1679211925942,288,2
1679211925950,289,2
1679211925957,292,2
1679211925965,295,2
1679211925972,295,2
1679211925979,296,2
1679211925987,293,2
1679211925994,292,2
1679211926002,296,2
1679211926009,296,2
1679211926016,296,2
1679211926024,298,2
1679211926031,297,2
1679211926039,298,2
1679211926046,298,2
1679211926053,296,2
1679211926061,294,2
1679211926068,292,2
1679211926076,292,2
1679211926083,297,2
1679211926090,299,2
1679211926098,298,2
1679211926105,298,2
1679211926113,300,2
1679211926120,297,2
1679211926127,298,2
1679211926135,299,2
1679211926142,294,2
1679211926150,291,2
1679211926157,292,2
1679211926165,295,2
1679211926172,296,2
1679211926179,298,2
1679211926187,299,2
1679211926194,299,2
1679211926202,298,2
1679211926209,295,2
1679211926216,296,2
1679211926224,294,2
1679211926231,294,2
1679211926239,298,2
1679211926246,299,2
1679211926253,295,2
1679211926261,290,2
1679211926268,295,2
1679211926276,297,2
1679211926283,297,2
1679211926290,298,2
1679211926298,300,2
1679211926305,298,2
1679211926313,297,2
1679211926320,299,2
1679211926328,300,2
1679211926335,299,2
1679211926342,289,2
1679211926350,294,2
1679211926357,295,2
1679211926365,297,2
1679211926372,299,2
1679211926379,298,2
1679211926387,298,2
1679211926394,299,2
1679211926402,300,2
1679211926409,302,2
1679211926416,302,2
1679211926424,297,2
1679211926431,293,2
1679211926439,295,2
1679211926446,295,2
1679211926453,290,2
1679211926461,296,2
1679211926468,300,2
1679211926476,303,2
1679211926483,303,2
1679211926491,303,2
1679211926498,302,2
1679211926505,300,2
1679211926513,294,2
1679211926520,294,2
1679211926528,292,2
1679211926535,290,2
1679211926542,295,2
1679211926550,297,2
1679211926557,297,2
1679211926565,296,2
1679211926572,299,2
1679211926579,303,2
1679211926587,303,2
1679211926594,303,2
1679211926602,302,2
1679211926609,301,2
1679211926616,295,2
1679211926624,287,2
1679211926631,284,2
1679211926639,291,2
1679211926646,296,2
1679211926654,301,2
1679211926661,303,2
1679211926668,304,2
1679211926676,304,2
1679211926683,303,2
1679211926690,302,2
1679211926698,299,2
1679211926705,288,2
1679211926713,290,2
1679211926720,293,2
1679211926728,295,2
1679211926735,299,2
1679211926742,300,2
1679211926750,302,2
1679211926757,302,2
1679211926765,301,2
1679211926772,301,2
1679211926780,300,2
1679211926787,291,2
1679211926794,286,2
1679211926802,293,2
1679211926809,298,2
1679211926817,297,2
1679211926824,296,2
1679211926831,298,2
1679211926839,299,2
1679211926846,298,2
1679211926854,297,2
1679211926861,296,2
1679211926868,298,2
1679211926876,299,2
1679211926883,293,2
1679211926891,295,2
1679211926898,296,2
1679211926905,295,2
1679211926913,298,2
1679211926920,299,2
1679211926928,300,2
1679211926935,299,2
1679211926942,300,2
1679211926950,300,2
1679211926957,302,2
1679211926965,300,2
1679211926972,303,2
1679211926980,305,2
1679211926987,306,2
1679211926994,303,2
1679211927002,303,2
1679211927009,305,2
1679211927017,304,2
1679211927024,304,2
1679211927031,297,2
1679211927039,298,2
1679211927046,298,2
1679211927054,300,2
1679211927061,299,2
1679211927068,300,2
1679211927076,303,2
1679211927083,303,2
1679211927091,302,2
1679211927098,299,2
1679211927105,292,2
1679211927113,292,2
1679211927120,297,2
1679211927128,297,2
1679211927135,298,2
1679211927142,302,2
1679211927150,302,2
1679211927157,301,2
1679211927165,300,2
1679211927172,299,2
1679211927180,298,2
1679211927187,294,2
1679211927194,292,2
1679211927202,290,2
1679211927209,292,2
1679211927217,294,2
1679211927224,299,2
1679211927231,299,2
1679211927239,301,2
1679211927246,301,2
1679211927254,300,2
1679211927261,298,2
1679211927268,294,2
1679211927276,292,2
1679211927283,288,2
1679211927291,296,2
1679211927298,300,2
1679211927305,301,2
1679211927313,301,2
1679211927320,301,2
1679211927328,301,2
1679211927335,299,2
1679211927342,295,2
1679211927350,293,2
1679211927357,293,2
1679211927365,292,2
1679211927372,295,2
1679211927380,297,2
1679211927387,301,2
1679211927394,303,2
1679211927402,302,2
1679211927409,300,2
1679211927417,299,2
1679211927424,296,2
1679211927431,298,2
1679211927439,298,2
1679211927446,295,2
1679211927454,296,2
1679211927461,298,2
1679211927468,297,2
1679211927476,300,2
1679211927483,304,2
1679211927491,303,2
1679211927498,299,2
1679211927505,301,2
1679211927513,302,2
1679211927520,303,2
1679211927528,300,2
1679211927535,290,2
1679211927543,291,2
1679211927550,297,2
1679211927557,301,2
1679211927565,301,2
1679211927572,300,2
1679211927580,301,2
1679211927587,302,2
1679211927594,300,2
1679211927602,298,2
1679211927609,297,2
1679211927617,295,2
1679211927624,296,2
1679211927631,296,2
1679211927639,297,2
1679211927646,301,2
1679211927654,302,2
1679211927661,299,2
1679211927669,301,2
1679211927676,301,2
1679211927683,298,2
1679211927691,297,2
1679211927698,297,2
1679211927706,291,2
1679211927713,294,2
1679211927720,299,2
1679211927728,301,2
1679211927735,301,2
1679211927743,301,2
1679211927750,302,2
1679211927757,303,2
1679211927765,300,2
1679211927772,293,2
1679211927780,290,2
1679211927787,294,2
1679211927794,295,2
1679211927802,297,2
1679211927809,301,2
1679211927817,303,2
1679211927824,304,2
1679211927831,303,2
1679211927839,299,2
1679211927846,295,2
1679211927854,294,2
1679211927861,294,2
1679211927869,293,2
1679211927876,298,2
1679211927883,300,2
1679211927891,303,2
1679211927898,301,2
1679211927906,302,2
1679211927913,301,2
1679211927920,299,2
1679211927928,299,2
1679211927935,298,2
1679211927943,292,2
1679211927950,292,2
1679211927957,295,2
1679211927965,300,2
1679211927972,299,2
1679211927980,299,2
1679211927987,302,2
1679211927995,302,2
1679211928002,303,2
1679211928009,303,2
1679211928017,297,2
1679211928024,294,2
1679211928032,295,2
1679211928039,297,2
1679211928046,299,2
1679211928054,299,2
1679211928061,297,2
1679211928069,300,2
1679211928076,301,2
1679211928083,298,2
1679211928091,295,2
1679211928098,298,2
1679211928106,300,2
1679211928113,299,2
1679211928120,301,2
1679211928128,302,2
1679211928135,301,2
1679211928143,297,2
1679211928150,290,2
1679211928157,291,2
1679211928165,293,2
1679211928172,293,2
1679211928180,296,2
1679211928187,299,2
1679211928194,301,2
1679211928202,301,2
1679211928209,301,2
1679211928217,297,2
1679211928224,299,2
1679211928232,301,2
1679211928239,296,2
1679211928246,299,2
1679211928254,293,2
1679211928261,288,2
1679211928269,299,2
1679211928276,302,2
1679211928283,305,2
1679211928291,306,2
1679211928298,305,2
1679211928306,300,2
1679211928313,298,2
1679211928320,290,2
1679211928328,297,2
1679211928335,300,2
1679211928343,300,2
1679211928350,298,2
1679211928358,297,2
1679211928365,289,2
1679211928372,296,2
1679211928380,302,2
1679211928387,303,2
1679211928395,304,2
1679211928402,302,2
1679211928409,301,2
1679211928417,293,2
1679211928424,294,2
1679211928432,299,2
1679211928439,299,2
1679211928446,301,2
1679211928454,294,2
1679211928461,294,2
1679211928469,294,2
1679211928476,298,2
1679211928483,302,2
1679211928491,303,2
1679211928498,300,2
1679211928506,297,2
1679211928513,297,2
1679211928521,293,2
1679211928528,300,2
1679211928535,301,2
1679211928543,303,2
1679211928550,304,2
1679211928558,303,2
1679211928565,292,2
1679211928572,288,2
1679211928580,294,2
1679211928587,300,2
1679211928595,301,2
1679211928602,301,2
1679211928609,301,2
1679211928617,289,2
1679211928624,289,2
1679211928632,301,2
1679211928639,306,2
1679211928647,304,2
1679211928654,305,2
1679211928661,305,2
1679211928669,300,2
1679211928676,292,2
1679211928684,293,2
1679211928691,293,2
1679211928698,294,2
1679211928706,298,2
1679211928713,301,2
1679211928721,299,2
1679211928728,296,2
1679211928735,297,2
1679211928743,298,2
1679211928750,302,2
1679211928758,304,2
1679211928765,303,2
1679211928772,295,2
1679211928780,293,2
1679211928787,298,2
1679211928795,294,2
1679211928802,296,2
1679211928809,302,2
1679211928817,301,2
1679211928824,299,2
1679211928832,303,2
1679211928839,300,2
1679211928847,301,2
1679211928854,302,2
1679211928861,300,2
1679211928869,298,2
1679211928876,298,2
1679211928884,298,2
1679211928891,302,2
1679211928898,301,2
1679211928906,301,2
1679211928913,300,2
1679211928921,299,2
1679211928928,302,2
1679211928935,302,2
1679211928943,296,2
1679211928950,298,2
1679211928958,300,2
1679211928965,298,2
1679211928972,296,2
1679211928980,299,2
1679211928987,301,2
1679211928995,303,2
1679211929002,303,2
1679211929010,303,2
1679211929017,303,2
1679211929024,298,2
1679211929032,297,2
1679211929039,297,2
1679211929047,298,2
1679211929054,298,2
1679211929061,301,2
1679211929069,301,2
1679211929076,300,2
1679211929084,299,2
1679211929091,299,2
1679211929098,299,2
1679211929106,299,2
1679211929113,302,2
1679211929121,302,2
1679211929128,302,2
1679211929135,301,2
1679211929143,298,2
1679211929150,297,2
1679211929158,295,2
1679211929165,291,2
1679211929172,295,2
1679211929180,301,2
1679211929187,301,2
1679211929195,302,2
1679211929202,303,2
1679211929210,305,2
1679211929217,304,2
1679211929224,303,2
1679211929232,293,2
1679211929239,289,2
1679211929247,295,2
1679211929254,297,2
1679211929261,299,2
1679211929269,302,2
1679211929276,302,2
1679211929284,298,2
1679211929291,298,2
1679211929298,299,2
1679211929306,300,2
1679211929313,300,2
1679211929321,302,2
1679211929328,302,2
1679211929335,303,2
1679211929343,303,2
1679211929350,297,2
1679211929358,295,2
1679211929365,295,2
1679211929373,297,2
1679211929380,297,2
1679211929387,298,2
1679211929395,302,2
1679211929402,303,2
1679211929410,302,2
1679211929417,302,2
1679211929424,302,2
1679211929432,298,2
1679211929439,296,2
1679211929447,297,2
1679211929454,298,2
1679211929461,297,2
1679211929469,298,2
1679211929476,300,2
1679211929484,300,2
1679211929491,299,2
1679211929498,301,2
1679211929506,299,2
1679211929513,297,2
1679211929521,297,2
1679211929528,296,2
1679211929535,293,2
1679211929543,295,2
1679211929550,298,2
1679211929558,300,2
1679211929565,299,2
1679211929573,302,2
1679211929580,302,2
1679211929587,300,2
1679211929595,297,2
1679211929602,296,2
1679211929610,288,2
1679211929617,293,2
1679211929624,295,2
1679211929632,300,2
1679211929639,302,2
1679211929647,302,2
1679211929654,302,2
1679211929662,303,2
1679211929669,302,2
1679211929676,300,2
1679211929684,293,2
1679211929691,290,2
1679211929699,293,2
1679211929706,298,2
1679211929713,301,2
1679211929721,302,2
1679211929728,302,2
1679211929736,302,2
1679211929743,299,2
1679211929750,297,2
1679211929758,294,2
1679211929765,296,2
1679211929773,294,2
1679211929780,297,2
1679211929787,300,2
1679211929795,301,2
1679211929802,303,2
1679211929810,303,2
1679211929817,302,2
1679211929824,302,2
1679211929832,299,2
1679211929839,298,2
1679211929847,289,2
1679211929854,289,2
1679211929862,294,2
1679211929869,297,2
1679211929876,299,2
1679211929884,300,2
1679211929891,301,2
1679211929899,303,2
1679211929906,303,2
1679211929913,303,2
1679211929921,301,2
1679211929928,299,2
1679211929936,295,2
1679211929943,290,2
1679211929950,285,2
1679211929958,291,2
1679211929965,295,2
1679211929973,297,2
1679211929980,301,2
1679211929987,304,2
1679211929995,304,2
1679211930002,302,2
1679211930010,299,2
1679211930017,293,2
1679211930024,291,2
1679211930032,290,2
1679211930039,296,2
1679211930047,301,2
1679211930054,303,2
1679211930062,302,2
1679211930069,303,2
1679211930076,303,2
1679211930084,298,2
1679211930091,293,2
1679211930099,295,2
1679211930106,290,2
1679211930114,296,2
1679211930121,299,2
1679211930128,301,2
1679211930136,302,2
1679211930143,302,2
1679211930150,300,2
1679211930158,299,2
1679211930165,296,2
1679211930173,296,2
1679211930180,291,2
1679211930187,295,2
1679211930195,297,2
1679211930202,294,2
1679211930210,299,2
1679211930217,301,2
1679211930225,300,2
1679211930232,299,2
1679211930239,300,2
1679211930247,300,2
1679211930254,295,2
1679211930262,293,2
1679211930269,297,2
1679211930276,294,2
1679211930284,298,2
1679211930291,294,2
1679211930299,298,2
1679211930306,302,2
1679211930314,303,2
1679211930321,303,2
1679211930328,304,2
1679211930336,303,2
1679211930343,301,2
1679211930351,293,2
1679211930358,286,2
1679211930365,294,2
1679211930373,293,2
1679211930380,299,2
1679211930388,303,2
1679211930395,304,2
1679211930402,305,2
1679211930410,304,2
1679211930417,302,2
1679211930425,295,2
1679211930432,296,2
1679211930440,294,2
1679211930447,296,2
1679211930454,298,2
1679211930462,302,2
1679211930469,302,2
1679211930476,303,2
1679211930484,304,2
1679211930491,302,2
1679211930499,294,2
1679211930506,300,2
1679211930514,302,2
1679211930521,298,2
1679211930528,294,2
1679211930536,296,2
1679211930543,297,2
1679211930551,303,2
1679211930558,304,2
1679211930565,304,2
1679211930573,302,2
1679211930580,303,2
1679211930588,304,2
1679211930595,300,2
1679211930602,299,2
1679211930610,293,2
1679211930617,290,2
1679211930625,296,2
1679211930632,302,2
1679211930639,306,2
1679211930647,308,2
1679211930654,307,2
1679211930662,306,2
1679211930669,304,2
1679211930676,301,2
1679211930684,298,2
1679211930691,299,2
1679211930699,296,2
1679211930706,297,2
1679211930714,299,2
1679211930721,301,2
1679211930728,304,2
1679211930736,305,2
1679211930743,305,2
1679211930751,304,2
1679211930758,301,2
1679211930765,298,2
1679211930773,298,2
1679211930780,298,2
1679211930788,301,2
1679211930795,299,2
1679211930803,295,2
1679211930810,299,2
1679211930817,303,2
1679211930825,305,2
1679211930832,306,2
1679211930840,307,2
1679211930847,305,2
1679211930854,303,2
1679211930862,301,2
1679211930869,296,2
1679211930877,295,2
1679211930884,302,2
1679211930891,303,2
1679211930899,302,2
1679211930906,305,2
1679211930914,307,2
1679211930921,306,2
1679211930928,302,2
1679211930936,297,2
1679211930943,300,2
1679211930951,300,2
1679211930958,300,2
1679211930965,304,2
1679211930973,307,2
1679211930980,304,2
1679211930988,304,2
1679211930995,303,2
1679211931003,305,2
1679211931010,306,2
1679211931017,301,2
1679211931025,298,2
1679211931032,298,2
1679211931040,298,2
1679211931047,298,2
1679211931054,296,2
1679211931062,308,2
1679211931069,313,2
1679211931077,313,2
1679211931084,313,2
1679211931091,312,2
1679211931099,310,2
1679211931106,307,2
1679211931114,304,2
1679211931121,298,2
1679211931129,296,2
1679211931136,296,2
1679211931143,298,2
1679211931151,306,2
1679211931158,305,2
1679211931166,305,2
1679211931173,307,2
1679211931180,309,2
1679211931188,308,2
1679211931195,303,2
1679211931203,302,2
1679211931210,297,2
1679211931217,292,2
1679211931225,301,2
1679211931232,306,2
1679211931240,300,2
1679211931247,305,2
1679211931254,310,2
1679211931262,311,2
1679211931269,310,2
1679211931277,308,2
1679211931284,302,2
1679211931291,293,2
1679211931299,293,2
1679211931306,297,2
1679211931314,300,2
1679211931321,300,2
1679211931329,307,2
1679211931336,309,2
1679211931343,309,2
1679211931351,305,2
1679211931358,300,2
1679211931366,301,2
1679211931373,298,2
1679211931380,292,2
1679211931388,300,2
1679211931395,301,2
1679211931403,299,2
1679211931410,294,2
1679211931417,304,2
1679211931425,306,2
1679211931432,304,2
1679211931440,307,2
1679211931447,308,2
1679211931454,301,2
1679211931462,296,2
1679211931469,298,2
1679211931477,295,2
1679211931484,297,2
1679211931491,298,2
1679211931499,297,2
1679211931506,298,2
1679211931514,302,2
1679211931521,306,2
1679211931529,305,2
1679211931536,305,2
1679211931543,301,2
1679211931551,295,2
1679211931558,291,2
1679211931566,288,2
1679211931573,293,2
1679211931580,296,2
1679211931588,303,2
1679211931595,307,2
1679211931603,306,2
1679211931610,305,2
1679211931617,305,2
1679211931625,303,2
1679211931632,294,2
1679211931640,293,2
1679211931647,298,2
1679211931654,297,2
1679211931662,299,2
1679211931669,304,2
1679211931677,304,2
1679211931684,297,2
1679211931691,298,2
1679211931699,299,2
1679211931706,299,2
1679211931714,295,2
1679211931721,299,2
1679211931729,302,2
1679211931736,299,2
1679211931743,296,2
1679211931751,303,2
1679211931758,304,2
1679211931766,301,2
1679211931773,296,2
1679211931780,295,2
1679211931788,293,2
1679211931795,296,2
1679211931803,298,2
1679211931810,302,2
1679211931817,297,2
1679211931825,294,2
1679211931832,293,2
1679211931840,294,2
1679211931847,299,2
1679211931854,300,2
1679211931862,296,2
1679211931869,294,2
1679211931877,294,2
1679211931884,292,2
1679211931892,296,2
1679211931899,299,2
1679211931906,298,2
1679211931914,297,2
1679211931921,298,2
1679211931929,292,2
1679211931936,290,2
1679211931943,290,2
1679211931951,292,2
1679211931958,289,2
1679211931966,290,2
1679211931973,295,2
1679211931981,301,2
1679211931988,301,2
1679211931995,300,2
1679211932003,299,2
1679211932010,296,2
1679211932018,293,2
1679211932025,291,2
1679211932032,292,2
1679211932040,289,2
1679211932047,282,2
1679211932055,287,2
1679211932062,293,2
1679211932069,292,2
1679211932077,295,2
1679211932084,298,2
1679211932092,296,2
1679211932099,295,2
1679211932106,292,2
1679211932114,291,2
1679211932121,291,2
1679211932129,291,2
1679211932136,292,2
1679211932143,295,2
1679211932151,290,2
1679211932158,293,2
1679211932166,296,2
1679211932173,300,2
1679211932181,298,2
1679211932188,297,2
1679211932195,292,2
1679211932203,295,2
1679211932210,291,2
1679211932218,293,2
1679211932225,294,2
1679211932233,298,2
1679211932240,300,2
1679211932247,301,2
1679211932255,301,2
1679211932262,298,2
1679211932269,296,2
1679211932277,295,2
1679211932284,296,2
1679211932292,290,2
1679211932299,294,2
1679211932306,292,2
1679211932314,295,2
1679211932321,294,2
1679211932329,297,2
1679211932336,301,2
1679211932343,303,2
1679211932351,301,2
1679211932358,301,2
1679211932366,299,2
1679211932373,295,2
1679211932381,291,2
1679211932388,288,2
1679211932395,286,2
1679211932403,292,2
1679211932410,295,2
1679211932418,298,2
1679211932425,299,2
1679211932432,298,2
1679211932440,294,2
1679211932447,295,2
1679211932455,290,2
1679211932462,291,2
1679211932469,295,2
1679211932477,296,2
1679211932484,297,2
1679211932492,300,2
1679211932499,297,2
1679211932507,298,2
1679211932514,298,2
1679211932521,297,2
1679211932529,294,2
1679211932536,294,2
1679211932544,293,2
1679211932551,294,2
1679211932558,294,2
1679211932566,297,2
1679211932573,296,2
1679211932581,297,2
1679211932588,297,2
1679211932596,297,2
1679211932603,293,2
1679211932610,292,2
1679211932618,297,2
1679211932625,296,2
1679211932632,293,2
1679211932640,294,2
1679211932647,295,2
1679211932655,295,2
1679211932662,296,2
1679211932670,297,2
1679211932677,298,2
1679211932684,300,2
1679211932692,299,2
1679211932699,299,2
1679211932707,297,2
1679211932714,289,2
1679211932721,286,2
1679211932729,288,2
1679211932736,290,2
1679211932744,296,2
1679211932751,299,2
1679211932758,300,2
1679211932766,301,2
