1679909255366,305,2
1679909255373,305,2
1679909255381,305,2
1679909255388,306,2
1679909255395,305,2
1679909255403,303,2
1679909255410,305,2
1679909255418,307,2
1679909255425,306,2
1679909255432,305,2
1679909255440,304,2
1679909255447,300,2
1679909255455,301,2
1679909255462,303,2
1679909255469,305,2
1679909255477,306,2
1679909255484,308,2
1679909255492,307,2
1679909255499,307,2
1679909255507,306,2
1679909255514,305,2
1679909255521,304,2
1679909255529,297,2
1679909255536,300,2
1679909255543,304,2
1679909255551,304,2
1679909255558,306,2
1679909255566,307,2
1679909255573,307,2
1679909255581,306,2
1679909255588,306,2
1679909255595,306,2
1679909255603,306,2
1679909255610,303,2
1679909255618,299,2
1679909255625,301,2
1679909255632,304,2
1679909255640,306,2
1679909255647,306,2
1679909255655,306,2
1679909255662,306,2
1679909255670,307,2
1679909255677,305,2
1679909255684,304,2
1679909255692,305,2
1679909255699,305,2
1679909255707,304,2
1679909255714,305,2
1679909255721,305,2
1679909255729,305,2
1679909255736,302,2
1679909255744,304,2
1679909255751,304,2
1679909255758,304,2
1679909255766,302,2
1679909255773,306,2
1679909255781,308,2
1679909255788,307,2
1679909255795,308,2
1679909255803,308,2
1679909255810,306,2
1679909255818,303,2
1679909255825,303,2
1679909255832,306,2
1679909255840,305,2
1679909255847,303,2
1679909255855,302,2
1679909255862,304,2
1679909255870,307,2
1679909255877,307,2
1679909255884,305,2
1679909255892,307,2
1679909255899,307,2
1679909255907,304,2
1679909255914,305,2
1679909255921,305,2
1679909255929,304,2
1679909255936,305,2
1679909255944,305,2
1679909255951,305,2
1679909255958,304,2
1679909255966,303,2
1679909255973,301,2
1679909255981,301,2
1679909255988,303,2
1679909255995,302,2
1679909256003,304,2
1679909256010,305,2
1679909256018,305,2
1679909256025,305,2
1679909256033,307,2
1679909256040,307,2
1679909256047,304,2
1679909256055,303,2
1679909256062,301,2
1679909256070,302,2
1679909256077,304,2
1679909256084,306,2
1679909256092,308,2
1679909256099,309,2
1679909256107,310,2
1679909256114,310,2
1679909256121,309,2
1679909256129,308,2
1679909256136,307,2
1679909256144,305,2
1679909256151,304,2
1679909256158,304,2
1679909256166,304,2
1679909256173,302,2
1679909256181,300,2
1679909256188,301,2
1679909256195,303,2
1679909256203,304,2
1679909256210,304,2
1679909256218,302,2
1679909256225,304,2
1679909256233,305,2
1679909256240,306,2
1679909256247,304,2
1679909256255,303,2
1679909256262,303,2
1679909256270,301,2
1679909256277,303,2
1679909256284,307,2
1679909256292,308,2
1679909256299,307,2
1679909256307,307,2
1679909256314,306,2
1679909256321,303,2
1679909256329,304,2
1679909256336,305,2
1679909256344,304,2
1679909256351,305,2
1679909256358,307,2
1679909256366,307,2
1679909256373,308,2
1679909256381,307,2
1679909256388,304,2
1679909256395,303,2
1679909256403,304,2
1679909256410,307,2
1679909256418,308,2
1679909256425,311,2
1679909256433,311,2
1679909256440,310,2
1679909256447,309,2
1679909256455,306,2
1679909256462,303,2
1679909256470,303,2
1679909256477,304,2
1679909256484,303,2
1679909256492,305,2
1679909256499,307,2
1679909256507,308,2
1679909256514,307,2
1679909256521,308,2
1679909256529,308,2
1679909256536,307,2
1679909256544,307,2
1679909256551,307,2
1679909256559,305,2
1679909256566,302,2
1679909256573,303,2
1679909256581,304,2
1679909256588,304,2
1679909256596,302,2
1679909256603,302,2
1679909256610,303,2
1679909256618,305,2
1679909256625,305,2
1679909256633,304,2
1679909256640,304,2
1679909256647,304,2
1679909256655,305,2
1679909256662,304,2
1679909256670,300,2
1679909256677,299,2
1679909256685,301,2
1679909256692,303,2
1679909256699,304,2
1679909256707,306,2
1679909256714,306,2
1679909256722,306,2
1679909256729,306,2
1679909256736,306,2
1679909256744,303,2
1679909256751,305,2
1679909256759,305,2
1679909256766,305,2
1679909256773,304,2
1679909256781,302,2
1679909256788,304,2
1679909256796,306,2
1679909256803,307,2
1679909256810,308,2
1679909256818,308,2
1679909256825,306,2
1679909256833,304,2
1679909256840,305,2
1679909256847,307,2
1679909256855,306,2
1679909256862,307,2
1679909256870,307,2
1679909256877,304,2
1679909256885,304,2
1679909256892,306,2
1679909256899,305,2
1679909256907,304,2
1679909256914,304,2
1679909256922,304,2
1679909256929,306,2
1679909256936,307,2
1679909256944,307,2
1679909256951,306,2
1679909256959,305,2
1679909256966,304,2
1679909256973,301,2
1679909256981,299,2
1679909256988,300,2
1679909256996,303,2
1679909257003,303,2
1679909257010,303,2
1679909257018,306,2
1679909257025,306,2
1679909257033,307,2
1679909257040,305,2
1679909257048,304,2
1679909257055,303,2
1679909257062,302,2
1679909257070,302,2
1679909257077,304,2
1679909257085,304,2
1679909257092,307,2
1679909257099,307,2
1679909257107,307,2
1679909257114,308,2
1679909257122,308,2
1679909257129,305,2
1679909257136,305,2
1679909257144,303,2
1679909257151,305,2
1679909257159,306,2
1679909257166,303,2
1679909257173,304,2
1679909257181,304,2
1679909257188,305,2
1679909257196,306,2
1679909257203,307,2
1679909257210,307,2
1679909257218,306,2
1679909257225,303,2
1679909257233,301,2
1679909257240,301,2
1679909257248,303,2
1679909257255,304,2
1679909257262,306,2
1679909257270,309,2
1679909257277,309,2
1679909257285,308,2
1679909257292,308,2
1679909257299,307,2
1679909257307,305,2
1679909257314,305,2
1679909257322,303,2
1679909257329,303,2
1679909257336,306,2
1679909257344,306,2
1679909257351,306,2
1679909257359,306,2
1679909257366,305,2
1679909257373,305,2
1679909257381,305,2
1679909257388,304,2
1679909257396,302,2
1679909257403,300,2
1679909257411,301,2
1679909257418,305,2
1679909257425,306,2
1679909257433,307,2
1679909257440,307,2
1679909257448,306,2
1679909257455,304,2
1679909257462,298,2
1679909257470,299,2
1679909257477,302,2
1679909257485,301,2
1679909257492,300,2
1679909257499,303,2
1679909257507,307,2
1679909257514,307,2
1679909257522,304,2
1679909257529,304,2
1679909257537,307,2
1679909257544,305,2
1679909257551,303,2
1679909257559,305,2
1679909257566,305,2
1679909257573,304,2
1679909257581,305,2
1679909257588,304,2
1679909257596,302,2
1679909257603,302,2
1679909257611,305,2
1679909257618,306,2
1679909257625,306,2
1679909257633,308,2
1679909257640,306,2
1679909257648,301,2
1679909257655,303,2
1679909257663,306,2
1679909257670,305,2
1679909257677,304,2
1679909257685,305,2
1679909257692,306,2
1679909257699,304,2
1679909257707,302,2
1679909257714,300,2
1679909257722,299,2
1679909257729,300,2
1679909257736,301,2
1679909257744,302,2
1679909257751,301,2
1679909257759,303,2
1679909257766,306,2
1679909257774,307,2
1679909257781,306,2
1679909257788,305,2
1679909257796,303,2
1679909257803,298,2
1679909257811,297,2
1679909257818,302,2
1679909257825,303,2
1679909257833,307,2
1679909257840,309,2
1679909257848,308,2
1679909257855,307,2
1679909257863,307,2
1679909257870,305,2
1679909257877,304,2
1679909257885,303,2
1679909257892,302,2
1679909257900,304,2
1679909257907,304,2
1679909257914,306,2
1679909257922,306,2
1679909257929,306,2
1679909257937,306,2
1679909257944,305,2
1679909257951,304,2
1679909257959,304,2
1679909257966,300,2
1679909257974,303,2
1679909257981,304,2
1679909257988,305,2
1679909257996,305,2
1679909258003,304,2
1679909258011,306,2
1679909258018,308,2
1679909258025,308,2
1679909258033,308,2
1679909258040,305,2
1679909258048,302,2
1679909258055,303,2
1679909258062,304,2
1679909258070,306,2
1679909258077,307,2
1679909258085,307,2
1679909258092,306,2
1679909258100,304,2
1679909258107,303,2
1679909258114,304,2
1679909258122,306,2
1679909258129,305,2
1679909258137,302,2
1679909258144,301,2
1679909258151,303,2
1679909258159,305,2
1679909258166,306,2
1679909258174,306,2
1679909258181,307,2
1679909258188,307,2
1679909258196,307,2
1679909258203,307,2
1679909258211,306,2
1679909258218,305,2
1679909258225,303,2
1679909258233,302,2
1679909258240,304,2
1679909258248,304,2
1679909258255,303,2
1679909258263,303,2
1679909258270,303,2
1679909258277,305,2
1679909258285,305,2
1679909258292,307,2
1679909258300,306,2
1679909258307,306,2
1679909258314,305,2
1679909258322,303,2
1679909258329,304,2
1679909258337,303,2
1679909258344,305,2
1679909258351,308,2
1679909258359,308,2
1679909258366,310,2
1679909258374,309,2
1679909258381,306,2
1679909258389,307,2
1679909258396,308,2
1679909258403,307,2
1679909258411,307,2
1679909258418,309,2
1679909258426,307,2
1679909258433,304,2
1679909258440,307,2
1679909258448,308,2
1679909258455,308,2
1679909258463,308,2
1679909258470,306,2
1679909258477,307,2
1679909258485,308,2
1679909258492,306,2
1679909258500,306,2
1679909258507,305,2
1679909258514,305,2
1679909258522,305,2
1679909258529,306,2
1679909258537,305,2
1679909258544,306,2
1679909258551,307,2
1679909258559,307,2
1679909258566,308,2
1679909258574,307,2
1679909258581,303,2
1679909258589,303,2
1679909258596,302,2
1679909258603,302,2
1679909258611,304,2
1679909258618,305,2
1679909258626,306,2
1679909258633,306,2
1679909258640,305,2
1679909258648,306,2
1679909258655,306,2
1679909258663,306,2
1679909258670,305,2
1679909258677,302,2
1679909258685,301,2
1679909258692,301,2
1679909258700,303,2
1679909258707,302,2
1679909258714,303,2
1679909258722,303,2
1679909258729,304,2
1679909258737,306,2
1679909258744,307,2
1679909258752,307,2
1679909258759,307,2
1679909258766,307,2
1679909258774,305,2
1679909258781,300,2
1679909258789,301,2
1679909258796,303,2
1679909258803,304,2
1679909258811,304,2
1679909258818,303,2
1679909258826,305,2
1679909258833,305,2
1679909258840,305,2
1679909258848,304,2
1679909258855,303,2
1679909258863,304,2
1679909258870,304,2
1679909258877,305,2
1679909258885,306,2
1679909258892,305,2
1679909258900,305,2
1679909258907,306,2
1679909258915,307,2
1679909258922,308,2
1679909258929,306,2
1679909258937,305,2
1679909258944,305,2
1679909258952,306,2
1679909258959,304,2
1679909258966,304,2
1679909258974,305,2
1679909258981,305,2
1679909258989,304,2
1679909258996,304,2
1679909259003,305,2
1679909259011,304,2
1679909259018,305,2
1679909259026,306,2
1679909259033,307,2
1679909259040,306,2
1679909259048,305,2
1679909259055,305,2
1679909259063,304,2
1679909259070,304,2
1679909259078,303,2
1679909259085,300,2
1679909259092,304,2
1679909259100,306,2
1679909259107,305,2
1679909259115,304,2
1679909259122,306,2
1679909259129,306,2
1679909259137,306,2
1679909259144,306,2
1679909259152,305,2
1679909259159,305,2
1679909259166,304,2
1679909259174,303,2
1679909259181,305,2
1679909259189,305,2
1679909259196,303,2
1679909259203,301,2
1679909259211,302,2
1679909259218,303,2
1679909259226,303,2
1679909259233,303,2
1679909259241,303,2
1679909259248,306,2
1679909259255,308,2
1679909259263,307,2
1679909259270,306,2
1679909259277,305,2
1679909259285,304,2
1679909259292,303,2
1679909259300,302,2
1679909259307,304,2
1679909259315,305,2
1679909259322,308,2
1679909259329,308,2
1679909259337,309,2
1679909259344,308,2
1679909259352,308,2
1679909259359,305,2
1679909259366,302,2
1679909259374,303,2
1679909259381,303,2
1679909259389,304,2
1679909259396,305,2
1679909259403,308,2
1679909259411,309,2
1679909259418,308,2
1679909259426,306,2
1679909259433,305,2
1679909259441,304,2
1679909259448,304,2
1679909259455,306,2
1679909259463,305,2
1679909259470,305,2
1679909259478,305,2
1679909259485,308,2
1679909259492,307,2
1679909259500,308,2
1679909259507,309,2
1679909259515,307,2
1679909259522,307,2
1679909259529,306,2
1679909259537,305,2
1679909259544,306,2
1679909259552,304,2
1679909259559,305,2
1679909259567,305,2
1679909259574,304,2
1679909259581,305,2
1679909259589,307,2
1679909259596,305,2
1679909259604,302,2
1679909259611,300,2
1679909259618,303,2
1679909259626,304,2
1679909259633,305,2
1679909259641,304,2
1679909259648,305,2
1679909259655,305,2
1679909259663,304,2
1679909259670,303,2
1679909259678,303,2
1679909259685,304,2
1679909259692,302,2
1679909259700,301,2
1679909259707,301,2
1679909259715,301,2
1679909259722,303,2
1679909259729,302,2
1679909259737,303,2
1679909259744,305,2
1679909259752,304,2
1679909259759,304,2
1679909259767,303,2
1679909259774,302,2
1679909259781,305,2
1679909259789,302,2
1679909259796,303,2
1679909259804,306,2
1679909259811,305,2
1679909259818,307,2
1679909259826,307,2
1679909259833,307,2
1679909259841,306,2
1679909259848,305,2
1679909259855,303,2
1679909259863,303,2
1679909259870,303,2
1679909259878,304,2
1679909259885,306,2
1679909259892,307,2
1679909259900,306,2
1679909259907,304,2
1679909259915,305,2
1679909259922,304,2
1679909259929,304,2
1679909259937,305,2
1679909259944,303,2
1679909259952,303,2
1679909259959,304,2
1679909259967,304,2
1679909259974,304,2
1679909259981,303,2
1679909259989,301,2
1679909259996,303,2
1679909260004,301,2
1679909260011,302,2
1679909260018,304,2
1679909260026,305,2
1679909260033,305,2
1679909260041,301,2
1679909260048,302,2
1679909260055,303,2
1679909260063,303,2
1679909260070,301,2
1679909260078,300,2
1679909260085,304,2
1679909260092,306,2
1679909260100,308,2
1679909260107,307,2
1679909260115,307,2
1679909260122,305,2
1679909260130,305,2
1679909260137,302,2
1679909260144,302,2
1679909260152,304,2
1679909260159,303,2
1679909260167,302,2
1679909260174,304,2
1679909260181,305,2
1679909260189,305,2
1679909260196,304,2
1679909260204,302,2
1679909260211,304,2
1679909260218,304,2
1679909260226,303,2
1679909260233,306,2
1679909260241,306,2
1679909260248,307,2
1679909260256,304,2
1679909260263,303,2
1679909260270,304,2
1679909260278,302,2
1679909260285,300,2
1679909260293,301,2
1679909260300,303,2
1679909260307,307,2
1679909260315,308,2
1679909260322,308,2
1679909260330,308,2
1679909260337,308,2
1679909260344,306,2
1679909260352,304,2
1679909260359,304,2
1679909260367,304,2
1679909260374,303,2
1679909260382,302,2
1679909260389,304,2
1679909260396,305,2
1679909260404,305,2
1679909260411,306,2
1679909260419,305,2
1679909260426,304,2
1679909260433,304,2
1679909260441,303,2
1679909260448,302,2
1679909260456,300,2
1679909260463,302,2
1679909260470,302,2
1679909260478,305,2
1679909260485,307,2
1679909260493,306,2
1679909260500,305,2
1679909260507,306,2
1679909260515,306,2
1679909260522,306,2
1679909260530,306,2
1679909260537,301,2
1679909260544,303,2
1679909260552,307,2
1679909260559,309,2
1679909260567,307,2
1679909260574,307,2
1679909260582,307,2
1679909260589,305,2
1679909260596,304,2
1679909260604,306,2
1679909260611,308,2
1679909260619,310,2
1679909260626,310,2
1679909260633,309,2
1679909260641,308,2
1679909260648,306,2
1679909260656,304,2
1679909260663,304,2
1679909260670,305,2
1679909260678,304,2
1679909260685,302,2
1679909260693,302,2
1679909260700,300,2
1679909260707,303,2
1679909260715,306,2
1679909260722,307,2
1679909260730,307,2
1679909260737,307,2
1679909260745,307,2
1679909260752,306,2
1679909260759,305,2
1679909260767,303,2
1679909260774,301,2
1679909260782,301,2
1679909260789,304,2
1679909260796,305,2
1679909260804,306,2
1679909260811,307,2
1679909260819,307,2
1679909260826,306,2
1679909260833,306,2
1679909260841,304,2
1679909260848,304,2
1679909260856,302,2
1679909260863,301,2
1679909260870,305,2
1679909260878,308,2
1679909260885,307,2
1679909260893,309,2
1679909260900,309,2
1679909260907,308,2
1679909260915,307,2
1679909260922,305,2
1679909260930,301,2
1679909260937,305,2
1679909260945,308,2
1679909260952,309,2
1679909260959,308,2
1679909260967,308,2
1679909260974,306,2
1679909260982,308,2
1679909260989,308,2
1679909260997,307,2
1679909261004,305,2
1679909261011,305,2
1679909261019,305,2
1679909261026,305,2
1679909261033,306,2
1679909261041,305,2
1679909261048,306,2
1679909261056,306,2
1679909261063,306,2
1679909261070,306,2
1679909261078,305,2
1679909261085,304,2
1679909261093,306,2
1679909261100,304,2
1679909261108,304,2
1679909261115,304,2
1679909261122,305,2
1679909261130,306,2
1679909261137,305,2
1679909261145,303,2
1679909261152,301,2
1679909261159,303,2
1679909261167,303,2
1679909261174,303,2
1679909261182,304,2
1679909261189,302,2
1679909261196,305,2
1679909261204,307,2
1679909261211,307,2
1679909261219,307,2
1679909261226,306,2
1679909261233,304,2
1679909261241,301,2
1679909261248,303,2
1679909261256,305,2
1679909261263,304,2
1679909261270,306,2
1679909261278,307,2
1679909261285,307,2
1679909261293,307,2
1679909261300,305,2
1679909261308,301,2
1679909261315,302,2
1679909261322,303,2
1679909261330,305,2
1679909261337,303,2
1679909261345,305,2
1679909261352,307,2
1679909261359,308,2
1679909261367,308,2
1679909261374,307,2
1679909261382,306,2
1679909261389,306,2
1679909261397,305,2
1679909261404,306,2
1679909261411,306,2
1679909261419,305,2
1679909261426,304,2
1679909261433,303,2
1679909261441,302,2
1679909261448,301,2
1679909261456,302,2
1679909261463,303,2
1679909261471,305,2
1679909261478,306,2
1679909261485,306,2
1679909261493,307,2
1679909261500,306,2
1679909261508,306,2
1679909261515,303,2
1679909261522,299,2
1679909261530,303,2
1679909261537,306,2
1679909261545,309,2
1679909261552,310,2
1679909261559,310,2
1679909261567,309,2
1679909261574,307,2
1679909261582,304,2
1679909261589,303,2
1679909261596,304,2
1679909261604,304,2
1679909261611,306,2
1679909261619,307,2
1679909261626,309,2
1679909261634,309,2
1679909261641,307,2
1679909261648,305,2
1679909261656,304,2
1679909261663,305,2
1679909261671,308,2
1679909261678,310,2
1679909261685,309,2
1679909261693,306,2
1679909261700,296,2
1679909261708,297,2
1679909261715,306,2
1679909261722,304,2
1679909261730,306,2
1679909261737,310,2
1679909261745,313,2
1679909261752,313,2
1679909261759,312,2
1679909261767,311,2
1679909261774,309,2
1679909261782,305,2
1679909261789,303,2
1679909261797,303,2
1679909261804,303,2
1679909261811,304,2
1679909261819,305,2
1679909261826,303,2
1679909261834,305,2
1679909261841,304,2
1679909261848,303,2
1679909261856,303,2
1679909261863,302,2
1679909261871,300,2
1679909261878,298,2
1679909261886,300,2
1679909261893,302,2
1679909261900,303,2
1679909261908,304,2
1679909261915,305,2
1679909261922,303,2
1679909261930,305,2
1679909261937,304,2
1679909261945,301,2
1679909261952,304,2
1679909261959,304,2
1679909261967,304,2
1679909261974,304,2
1679909261982,306,2
1679909261989,306,2
1679909261997,304,2
1679909262004,305,2
1679909262011,305,2
1679909262019,305,2
1679909262026,304,2
1679909262034,303,2
1679909262041,304,2
1679909262048,304,2
1679909262056,302,2
1679909262063,300,2
1679909262071,299,2
1679909262078,301,2
1679909262085,302,2
1679909262093,303,2
1679909262100,304,2
1679909262108,305,2
1679909262115,305,2
1679909262123,305,2
1679909262130,305,2
1679909262137,303,2
1679909262145,299,2
1679909262152,300,2
1679909262160,303,2
1679909262167,301,2
1679909262174,301,2
1679909262182,304,2
1679909262189,305,2
1679909262197,305,2
1679909262204,304,2
1679909262211,306,2
1679909262219,305,2
1679909262226,305,2
1679909262234,305,2
1679909262241,303,2
1679909262249,303,2
1679909262256,305,2
1679909262263,303,2
1679909262271,303,2
1679909262278,304,2
1679909262285,304,2
1679909262293,304,2
1679909262300,305,2
1679909262308,305,2
1679909262315,307,2
1679909262323,307,2
1679909262330,307,2
1679909262337,306,2
1679909262345,303,2
1679909262352,304,2
1679909262360,303,2
1679909262367,301,2
1679909262374,303,2
1679909262382,305,2
1679909262389,306,2
1679909262397,309,2
1679909262404,310,2
1679909262411,310,2
1679909262419,309,2
1679909262426,308,2
1679909262434,307,2
1679909262441,305,2
1679909262449,300,2
1679909262456,301,2
1679909262463,304,2
1679909262471,307,2
1679909262478,309,2
1679909262486,308,2
1679909262493,308,2
1679909262500,308,2
1679909262508,305,2
1679909262515,301,2
1679909262523,300,2
1679909262530,307,2
1679909262537,309,2
1679909262545,306,2
1679909262552,306,2
1679909262560,308,2
1679909262567,307,2
1679909262574,307,2
1679909262582,305,2
1679909262589,304,2
1679909262597,304,2
1679909262604,305,2
1679909262612,303,2
1679909262619,300,2
1679909262626,303,2
1679909262634,305,2
1679909262641,305,2
1679909262649,305,2
1679909262656,305,2
1679909262663,304,2
1679909262671,303,2
1679909262678,303,2
1679909262686,301,2
1679909262693,300,2
1679909262701,300,2
1679909262708,300,2
1679909262715,301,2
1679909262723,304,2
1679909262730,305,2
1679909262738,306,2
1679909262745,305,2
1679909262752,301,2
1679909262760,300,2
1679909262767,303,2
1679909262774,302,2
1679909262782,301,2
1679909262789,301,2
1679909262797,304,2
1679909262804,305,2
1679909262812,305,2
1679909262819,304,2
1679909262826,301,2
1679909262834,301,2
1679909262841,303,2
1679909262849,303,2
1679909262856,302,2
1679909262863,299,2
1679909262871,302,2
1679909262878,302,2
1679909262886,302,2
1679909262893,304,2
1679909262900,305,2
1679909262908,306,2
1679909262915,306,2
1679909262923,308,2
1679909262930,308,2
1679909262937,306,2
1679909262945,305,2
1679909262952,305,2
1679909262960,303,2
1679909262967,303,2
1679909262974,302,2
1679909262982,302,2
1679909262989,304,2
1679909262997,304,2
1679909263004,304,2
1679909263012,303,2
1679909263019,305,2
1679909263026,303,2
1679909263034,304,2
1679909263041,304,2
1679909263049,305,2
1679909263056,307,2
1679909263063,305,2
1679909263071,305,2
1679909263078,307,2
1679909263086,306,2
1679909263093,303,2
1679909263100,303,2
1679909263108,304,2
1679909263115,303,2
1679909263123,307,2
1679909263130,310,2
1679909263138,308,2
1679909263145,304,2
1679909263152,304,2
1679909263160,303,2
1679909263167,303,2
1679909263175,303,2
1679909263182,304,2
1679909263189,304,2
1679909263197,306,2
1679909263204,303,2
1679909263212,306,2
1679909263219,307,2
1679909263226,304,2
1679909263234,305,2
1679909263241,306,2
1679909263249,307,2
1679909263256,307,2
1679909263264,302,2
1679909263271,303,2
1679909263278,303,2
1679909263286,303,2
1679909263293,302,2
1679909263301,302,2
1679909263308,304,2
1679909263315,306,2
1679909263323,305,2
1679909263330,307,2
1679909263338,310,2
1679909263345,310,2
1679909263352,309,2
1679909263360,302,2
1679909263367,303,2
1679909263375,307,2
1679909263382,307,2
1679909263389,304,2
1679909263397,298,2
1679909263404,300,2
1679909263412,303,2
1679909263419,303,2
1679909263426,305,2
1679909263434,301,2
1679909263441,303,2
1679909263449,306,2
1679909263456,306,2
1679909263463,300,2
1679909263471,299,2
1679909263478,302,2
1679909263486,303,2
1679909263493,300,2
1679909263501,302,2
1679909263508,305,2
1679909263515,305,2
1679909263523,301,2
1679909263530,302,2
1679909263538,304,2
1679909263545,299,2
1679909263552,302,2
1679909263560,305,2
1679909263567,305,2
1679909263575,302,2
1679909263582,304,2
1679909263589,302,2
1679909263597,300,2
1679909263604,301,2
1679909263612,303,2
1679909263619,302,2
1679909263627,300,2
1679909263634,304,2
1679909263641,307,2
1679909263649,310,2
1679909263656,312,2
1679909263664,311,2
1679909263671,309,2
1679909263678,302,2
1679909263686,301,2
1679909263693,306,2
1679909263701,306,2
1679909263708,307,2
1679909263715,309,2
1679909263723,307,2
1679909263730,300,2
1679909263738,305,2
1679909263745,308,2
1679909263752,308,2
1679909263760,306,2
1679909263767,303,2
1679909263775,304,2
1679909263782,304,2
1679909263789,307,2
1679909263797,310,2
1679909263804,310,2
1679909263812,306,2
1679909263819,301,2
1679909263827,300,2
1679909263834,302,2
1679909263841,303,2
1679909263849,309,2
1679909263856,312,2
1679909263864,311,2
1679909263871,310,2
1679909263878,309,2
1679909263886,305,2
1679909263893,299,2
1679909263901,303,2
1679909263908,304,2
1679909263915,302,2
1679909263923,302,2
1679909263930,301,2
1679909263938,305,2
1679909263945,307,2
1679909263953,307,2
1679909263960,307,2
1679909263967,305,2
1679909263975,304,2
1679909263982,301,2
1679909263990,301,2
1679909263997,305,2
1679909264004,307,2
1679909264012,309,2
1679909264019,308,2
1679909264027,306,2
1679909264034,305,2
1679909264041,304,2
1679909264049,300,2
1679909264056,301,2
1679909264064,306,2
1679909264071,309,2
1679909264078,308,2
1679909264086,309,2
1679909264093,307,2
1679909264101,306,2
1679909264108,305,2
1679909264115,304,2
1679909264123,306,2
1679909264130,304,2
1679909264138,306,2
1679909264145,308,2
1679909264153,309,2
1679909264160,307,2
1679909264167,305,2
1679909264175,306,2
1679909264182,306,2
1679909264190,301,2
1679909264197,303,2
1679909264204,300,2
1679909264212,304,2
1679909264219,306,2
1679909264227,306,2
1679909264234,310,2
1679909264241,311,2
1679909264249,310,2
1679909264256,308,2
1679909264264,306,2
1679909264271,305,2
1679909264279,301,2
1679909264286,298,2
1679909264293,304,2
1679909264301,307,2
1679909264308,308,2
1679909264316,309,2
1679909264323,308,2
1679909264330,309,2
1679909264338,305,2
1679909264345,300,2
1679909264353,303,2
1679909264360,306,2
1679909264367,308,2
1679909264375,309,2
1679909264382,308,2
1679909264390,308,2
1679909264397,308,2
1679909264404,306,2
1679909264412,300,2
1679909264419,301,2
1679909264427,303,2
1679909264434,304,2
1679909264441,307,2
1679909264449,306,2
1679909264456,308,2
1679909264464,305,2
1679909264471,302,2
1679909264479,302,2
1679909264486,307,2
1679909264493,307,2
1679909264501,307,2
1679909264508,309,2
1679909264516,310,2
1679909264523,307,2
1679909264530,302,2
1679909264538,299,2
1679909264545,304,2
1679909264553,306,2
1679909264560,306,2
1679909264567,309,2
1679909264575,309,2
1679909264582,308,2
1679909264590,307,2
1679909264597,303,2
1679909264604,299,2
1679909264612,300,2
1679909264619,306,2
1679909264627,308,2
1679909264634,308,2
1679909264642,307,2
1679909264649,307,2
1679909264656,306,2
1679909264664,303,2
1679909264671,295,2
1679909264679,301,2
1679909264686,301,2
1679909264693,303,2
1679909264701,306,2
1679909264708,307,2
1679909264716,305,2
1679909264723,304,2
1679909264730,306,2
1679909264738,306,2
1679909264745,302,2
1679909264753,303,2
1679909264760,302,2
1679909264767,304,2
1679909264775,304,2
1679909264782,302,2
1679909264790,302,2
1679909264797,302,2
1679909264805,304,2
1679909264812,303,2
1679909264819,305,2
1679909264827,308,2
1679909264834,309,2
1679909264842,310,2
1679909264849,309,2
1679909264856,307,2
1679909264864,305,2
1679909264871,302,2
1679909264879,304,2
1679909264886,303,2
1679909264893,306,2
1679909264901,307,2
1679909264908,308,2
1679909264916,305,2
1679909264923,303,2
1679909264930,303,2
1679909264938,305,2
1679909264945,304,2
1679909264953,303,2
1679909264960,303,2
1679909264967,304,2
1679909264975,305,2
1679909264982,307,2
1679909264990,308,2
1679909264997,308,2
1679909265005,306,2
1679909265012,304,2
1679909265019,305,2
1679909265027,305,2
1679909265034,304,2
1679909265042,305,2
1679909265049,305,2
1679909265056,305,2
1679909265064,304,2
1679909265071,303,2
1679909265079,301,2
1679909265086,302,2
1679909265093,304,2
1679909265101,306,2
1679909265108,308,2
1679909265116,308,2
1679909265123,305,2
1679909265130,305,2
1679909265138,305,2
1679909265145,305,2
1679909265153,304,2
1679909265160,304,2
1679909265168,304,2
1679909265175,307,2
1679909265182,308,2
1679909265190,309,2
1679909265197,310,2
1679909265205,308,2
1679909265212,305,2
1679909265219,304,2
1679909265227,304,2
1679909265234,305,2
1679909265242,307,2
1679909265249,308,2
1679909265256,310,2
1679909265264,310,2
1679909265271,308,2
1679909265279,307,2
1679909265286,306,2
1679909265294,308,2
1679909265301,309,2
1679909265308,308,2
1679909265316,309,2
1679909265323,308,2
1679909265330,308,2
1679909265338,307,2
1679909265345,306,2
1679909265353,305,2
1679909265360,304,2
1679909265368,302,2
1679909265375,303,2
1679909265382,300,2
1679909265390,297,2
1679909265397,300,2
1679909265405,303,2
1679909265412,305,2
1679909265419,308,2
1679909265427,309,2
1679909265434,309,2
1679909265442,309,2
1679909265449,307,2
1679909265456,306,2
1679909265464,304,2
1679909265471,303,2
1679909265479,303,2
1679909265486,305,2
1679909265494,308,2
1679909265501,311,2
1679909265508,310,2
1679909265516,310,2
1679909265523,309,2
1679909265531,308,2
1679909265538,307,2
1679909265545,304,2
1679909265553,304,2
1679909265560,305,2
1679909265568,305,2
1679909265575,305,2
1679909265582,305,2
1679909265590,307,2
1679909265597,307,2
1679909265605,306,2
1679909265612,305,2
1679909265619,306,2
1679909265627,305,2
1679909265634,305,2
1679909265642,302,2
1679909265649,301,2
1679909265656,305,2
1679909265664,307,2
1679909265671,308,2
1679909265679,308,2
1679909265686,307,2
1679909265693,306,2
1679909265701,305,2
1679909265708,308,2
1679909265716,308,2
1679909265723,304,2
1679909265731,308,2
1679909265738,308,2
1679909265745,307,2
1679909265753,307,2
1679909265760,306,2
1679909265768,305,2
1679909265775,304,2
1679909265783,306,2
1679909265790,307,2
1679909265797,307,2
1679909265805,307,2
1679909265812,309,2
1679909265820,309,2
1679909265827,307,2
1679909265834,305,2
1679909265842,303,2
1679909265849,304,2
1679909265857,304,2
1679909265864,303,2
1679909265871,303,2
1679909265879,305,2
1679909265886,306,2
1679909265894,306,2
1679909265901,307,2
1679909265908,305,2
1679909265916,305,2
1679909265923,304,2
1679909265931,301,2
1679909265938,297,2
1679909265945,301,2
1679909265953,305,2
1679909265960,307,2
1679909265968,305,2
1679909265975,306,2
1679909265982,306,2
1679909265990,304,2
1679909265997,303,2
1679909266005,301,2
1679909266012,304,2
1679909266020,307,2
1679909266027,308,2
1679909266034,309,2
1679909266042,308,2
1679909266049,307,2
1679909266057,305,2
1679909266064,306,2
1679909266071,304,2
1679909266079,303,2
1679909266086,306,2
1679909266094,306,2
1679909266101,305,2
1679909266108,303,2
1679909266116,306,2
1679909266123,307,2
1679909266131,305,2
1679909266138,306,2
1679909266145,307,2
1679909266153,306,2
1679909266160,306,2
1679909266168,307,2
1679909266175,308,2
1679909266183,304,2
1679909266190,303,2
1679909266197,305,2
1679909266205,306,2
1679909266212,307,2
1679909266220,304,2
1679909266227,305,2
1679909266234,306,2
1679909266242,306,2
1679909266249,304,2
1679909266257,304,2
1679909266264,303,2
1679909266271,303,2
1679909266279,303,2
1679909266286,302,2
1679909266294,301,2
1679909266301,303,2
1679909266308,304,2
1679909266316,303,2
1679909266323,302,2
1679909266331,304,2
1679909266338,306,2
1679909266345,305,2
1679909266353,305,2
1679909266360,303,2
1679909266368,304,2
1679909266375,304,2
1679909266383,302,2
1679909266390,303,2
1679909266397,304,2
1679909266405,304,2
1679909266412,305,2
1679909266420,307,2
1679909266427,308,2
1679909266434,307,2
1679909266442,305,2
1679909266449,305,2
1679909266457,302,2
1679909266464,300,2
1679909266471,302,2
1679909266479,303,2
1679909266486,305,2
1679909266494,307,2
1679909266501,307,2
1679909266508,306,2
1679909266516,307,2
1679909266523,307,2
1679909266531,303,2
1679909266538,302,2
1679909266546,302,2
1679909266553,304,2
1679909266560,307,2
1679909266568,308,2
1679909266575,307,2
1679909266583,306,2
1679909266590,306,2
1679909266597,304,2
1679909266605,303,2
1679909266612,303,2
1679909266620,303,2
1679909266627,303,2
1679909266634,303,2
1679909266642,303,2
1679909266649,304,2
1679909266657,304,2
1679909266664,301,2
1679909266671,302,2
1679909266679,301,2
1679909266686,300,2
1679909266694,302,2
1679909266701,304,2
1679909266709,303,2
1679909266716,304,2
1679909266723,304,2
1679909266731,302,2
1679909266738,301,2
1679909266746,304,2
1679909266753,303,2
1679909266760,306,2
1679909266768,305,2
1679909266775,301,2
1679909266783,302,2
1679909266790,302,2
1679909266797,305,2
1679909266805,306,2
1679909266812,306,2
1679909266820,307,2
1679909266827,306,2
1679909266835,306,2
1679909266842,303,2
1679909266849,303,2
1679909266857,304,2
1679909266864,306,2
1679909266872,307,2
1679909266879,307,2
1679909266886,306,2
1679909266894,306,2
1679909266901,306,2
1679909266909,302,2
1679909266916,300,2
1679909266923,302,2
1679909266931,304,2
1679909266938,306,2
1679909266946,304,2
1679909266953,304,2
1679909266960,306,2
1679909266968,306,2
1679909266975,305,2
1679909266983,305,2
1679909266990,305,2
1679909266998,304,2
1679909267005,304,2
1679909267012,304,2
1679909267020,305,2
1679909267027,306,2
1679909267035,307,2
1679909267042,308,2
1679909267049,306,2
1679909267057,305,2
1679909267064,303,2
1679909267072,304,2
1679909267079,306,2
1679909267086,305,2
1679909267094,304,2
1679909267101,302,2
1679909267109,303,2
1679909267116,300,2
1679909267123,301,2
1679909267131,303,2
1679909267138,305,2
1679909267146,305,2
1679909267153,306,2
1679909267160,307,2
1679909267168,307,2
1679909267175,306,2
1679909267183,305,2
1679909267190,299,2
1679909267198,301,2
1679909267205,302,2
1679909267212,302,2
1679909267220,305,2
1679909267227,305,2
1679909267235,306,2
1679909267242,308,2
1679909267249,308,2
1679909267257,308,2
1679909267264,307,2
1679909267272,304,2
1679909267279,302,2
1679909267286,303,2
1679909267294,302,2
1679909267301,303,2
1679909267309,303,2
1679909267316,304,2
1679909267324,305,2
1679909267331,305,2
1679909267338,306,2
1679909267346,306,2
1679909267353,306,2
1679909267360,305,2
1679909267368,303,2
1679909267375,300,2
1679909267383,302,2
1679909267390,304,2
1679909267398,305,2
1679909267405,306,2
1679909267412,305,2
1679909267420,305,2
1679909267427,306,2
1679909267435,307,2
1679909267442,306,2
1679909267449,304,2
1679909267457,304,2
1679909267464,305,2
1679909267472,305,2
1679909267479,304,2
1679909267486,304,2
1679909267494,305,2
1679909267501,306,2
1679909267509,305,2
1679909267516,303,2
1679909267524,305,2
1679909267531,305,2
1679909267538,304,2
1679909267546,305,2
1679909267553,306,2
1679909267561,307,2
1679909267568,306,2
1679909267575,303,2
1679909267583,299,2
1679909267590,300,2
1679909267598,302,2
1679909267605,304,2
1679909267612,307,2
1679909267620,308,2
1679909267627,308,2
1679909267635,309,2
1679909267642,309,2
1679909267649,307,2
1679909267657,307,2
1679909267664,307,2
1679909267672,300,2
1679909267679,302,2
1679909267687,304,2
1679909267694,306,2
1679909267701,307,2
1679909267709,308,2
1679909267716,308,2
1679909267724,308,2
1679909267731,309,2
1679909267738,308,2
1679909267746,307,2
1679909267753,307,2
1679909267761,307,2
1679909267768,303,2
1679909267775,300,2
1679909267783,300,2
1679909267790,302,2
1679909267798,301,2
1679909267805,302,2
1679909267813,304,2
1679909267820,307,2
1679909267827,307,2
1679909267835,307,2
1679909267842,301,2
1679909267849,304,2
1679909267857,303,2
1679909267864,303,2
1679909267872,302,2
1679909267879,305,2
1679909267887,304,2
1679909267894,308,2
1679909267901,309,2
1679909267909,308,2
1679909267916,304,2
1679909267924,303,2
1679909267931,305,2
1679909267938,305,2
1679909267946,301,2
1679909267953,305,2
1679909267961,307,2
1679909267968,306,2
1679909267975,305,2
1679909267983,304,2
1679909267990,304,2
1679909267998,305,2
1679909268005,305,2
1679909268013,304,2
1679909268020,302,2
1679909268027,304,2
1679909268035,305,2
1679909268042,305,2
1679909268050,304,2
1679909268057,303,2
1679909268064,303,2
1679909268072,304,2
1679909268079,304,2
1679909268087,306,2
1679909268094,305,2
1679909268101,304,2
1679909268109,304,2
1679909268116,305,2
1679909268124,306,2
1679909268131,303,2
1679909268138,300,2
1679909268146,303,2
1679909268153,305,2
1679909268161,304,2
1679909268168,301,2
1679909268175,303,2
1679909268183,301,2
1679909268190,303,2
1679909268198,305,2
1679909268205,304,2
1679909268212,303,2
1679909268220,306,2
1679909268227,307,2
1679909268235,306,2
1679909268242,305,2
1679909268250,304,2
1679909268257,299,2
1679909268264,301,2
1679909268272,303,2
1679909268279,301,2
1679909268287,303,2
1679909268294,307,2
1679909268301,308,2
1679909268309,307,2
1679909268316,307,2
1679909268324,306,2
1679909268331,304,2
1679909268339,303,2
1679909268346,303,2
1679909268353,303,2
1679909268361,305,2
1679909268368,305,2
1679909268376,307,2
1679909268383,306,2
1679909268390,307,2
1679909268398,307,2
1679909268405,307,2
1679909268413,305,2
1679909268420,302,2
1679909268427,302,2
1679909268435,301,2
1679909268442,303,2
1679909268450,303,2
1679909268457,306,2
1679909268464,306,2
1679909268472,308,2
1679909268479,309,2
1679909268487,308,2
1679909268494,301,2
1679909268501,304,2
1679909268509,306,2
1679909268516,307,2
1679909268524,308,2
1679909268531,309,2
1679909268539,310,2
1679909268546,308,2
1679909268553,310,2
1679909268561,312,2
1679909268568,310,2
1679909268576,308,2
1679909268583,308,2
1679909268590,306,2
1679909268598,306,2
1679909268605,307,2
1679909268613,309,2
1679909268620,309,2
1679909268627,310,2
1679909268635,310,2
1679909268642,306,2
1679909268650,307,2
1679909268657,307,2
1679909268664,307,2
1679909268672,307,2
1679909268679,302,2
1679909268687,305,2
1679909268694,309,2
1679909268702,310,2
1679909268709,308,2
1679909268716,306,2
1679909268724,307,2
1679909268731,309,2
1679909268739,309,2
1679909268746,306,2
1679909268753,309,2
1679909268761,310,2
1679909268768,310,2
1679909268776,309,2
1679909268783,307,2
1679909268790,304,2
1679909268798,305,2
1679909268805,307,2
1679909268813,307,2
1679909268820,306,2
