1679909074708,305,2
1679909074716,305,2
1679909074723,305,2
1679909074730,303,2
1679909074738,305,2
1679909074745,305,2
1679909074753,303,2
1679909074760,304,2
1679909074767,305,2
1679909074775,303,2
1679909074782,302,2
1679909074790,304,2
1679909074797,305,2
1679909074804,307,2
1679909074812,308,2
1679909074819,308,2
1679909074827,308,2
1679909074834,307,2
1679909074841,305,2
1679909074849,306,2
1679909074856,306,2
1679909074864,306,2
1679909074871,301,2
1679909074878,300,2
1679909074886,303,2
1679909074893,305,2
1679909074901,306,2
1679909074908,306,2
1679909074916,307,2
1679909074923,308,2
1679909074930,307,2
1679909074938,304,2
1679909074945,302,2
1679909074953,304,2
1679909074960,304,2
1679909074967,303,2
1679909074975,303,2
1679909074982,305,2
1679909074990,305,2
1679909074997,307,2
1679909075005,306,2
1679909075012,304,2
1679909075019,305,2
1679909075027,305,2
1679909075034,305,2
1679909075041,301,2
1679909075049,302,2
1679909075056,304,2
1679909075064,305,2
1679909075071,306,2
1679909075078,306,2
1679909075086,305,2
1679909075093,304,2
1679909075101,307,2
1679909075108,307,2
1679909075116,307,2
1679909075123,306,2
1679909075130,302,2
1679909075138,302,2
1679909075145,301,2
1679909075153,303,2
1679909075160,306,2
1679909075167,307,2
1679909075175,307,2
1679909075182,307,2
1679909075190,305,2
1679909075197,304,2
1679909075204,303,2
1679909075212,304,2
1679909075219,303,2
1679909075227,305,2
1679909075234,306,2
1679909075241,304,2
1679909075249,305,2
1679909075256,304,2
1679909075264,304,2
1679909075271,305,2
1679909075279,308,2
1679909075286,308,2
1679909075293,308,2
1679909075301,309,2
1679909075308,307,2
1679909075316,308,2
1679909075323,306,2
1679909075330,306,2
1679909075338,307,2
1679909075345,304,2
1679909075353,302,2
1679909075360,306,2
1679909075367,308,2
1679909075375,308,2
1679909075382,307,2
1679909075390,305,2
1679909075397,304,2
1679909075404,306,2
1679909075412,306,2
1679909075419,304,2
1679909075427,301,2
1679909075434,305,2
1679909075442,307,2
1679909075449,308,2
1679909075456,306,2
1679909075464,301,2
1679909075471,302,2
1679909075479,306,2
1679909075486,306,2
1679909075493,306,2
1679909075501,306,2
1679909075508,306,2
1679909075516,304,2
1679909075523,305,2
1679909075530,304,2
1679909075538,302,2
1679909075545,301,2
1679909075553,303,2
1679909075560,306,2
1679909075567,307,2
1679909075575,303,2
1679909075582,302,2
1679909075590,304,2
1679909075597,305,2
1679909075605,307,2
1679909075612,308,2
1679909075619,308,2
1679909075627,305,2
1679909075634,304,2
1679909075642,307,2
1679909075649,305,2
1679909075656,303,2
1679909075664,302,2
1679909075671,304,2
1679909075679,304,2
1679909075686,302,2
1679909075693,302,2
1679909075701,303,2
1679909075708,306,2
1679909075716,308,2
1679909075723,307,2
1679909075730,306,2
1679909075738,304,2
1679909075745,303,2
1679909075753,303,2
1679909075760,302,2
1679909075768,303,2
1679909075775,304,2
1679909075782,306,2
1679909075790,306,2
1679909075797,307,2
1679909075805,306,2
1679909075812,304,2
1679909075819,304,2
1679909075827,304,2
1679909075834,302,2
1679909075842,305,2
1679909075849,306,2
1679909075856,308,2
1679909075864,307,2
1679909075871,307,2
1679909075879,306,2
1679909075886,302,2
1679909075893,300,2
1679909075901,303,2
1679909075908,304,2
1679909075916,305,2
1679909075923,305,2
1679909075930,308,2
1679909075938,307,2
1679909075945,308,2
1679909075953,305,2
1679909075960,304,2
1679909075968,304,2
1679909075975,305,2
1679909075982,306,2
1679909075990,307,2
1679909075997,306,2
1679909076005,305,2
1679909076012,303,2
1679909076019,303,2
1679909076027,304,2
1679909076034,305,2
1679909076042,305,2
1679909076049,305,2
1679909076056,303,2
1679909076064,305,2
1679909076071,306,2
1679909076079,306,2
1679909076086,303,2
1679909076093,302,2
1679909076101,305,2
1679909076108,306,2
1679909076116,305,2
1679909076123,303,2
1679909076131,302,2
1679909076138,305,2
1679909076145,306,2
1679909076153,304,2
1679909076160,303,2
1679909076168,304,2
1679909076175,304,2
1679909076182,303,2
1679909076190,304,2
1679909076197,305,2
1679909076205,306,2
1679909076212,306,2
1679909076219,307,2
1679909076227,306,2
1679909076234,305,2
1679909076242,305,2
1679909076249,305,2
1679909076257,306,2
1679909076264,306,2
1679909076271,305,2
1679909076279,305,2
1679909076286,305,2
1679909076294,303,2
1679909076301,302,2
1679909076308,304,2
1679909076316,305,2
1679909076323,304,2
1679909076331,304,2
1679909076338,304,2
1679909076345,304,2
1679909076353,304,2
1679909076360,304,2
1679909076368,305,2
1679909076375,306,2
1679909076382,307,2
1679909076390,306,2
1679909076397,307,2
1679909076405,306,2
1679909076412,306,2
1679909076419,306,2
1679909076427,306,2
1679909076434,305,2
1679909076442,305,2
1679909076449,304,2
1679909076457,304,2
1679909076464,304,2
1679909076471,301,2
1679909076479,299,2
1679909076486,302,2
1679909076494,302,2
1679909076501,304,2
1679909076508,303,2
1679909076516,302,2
1679909076523,305,2
1679909076531,305,2
1679909076538,301,2
1679909076545,304,2
1679909076553,305,2
1679909076560,306,2
1679909076568,308,2
1679909076575,309,2
1679909076583,308,2
1679909076590,308,2
1679909076597,306,2
1679909076605,303,2
1679909076612,303,2
1679909076620,302,2
1679909076627,306,2
1679909076634,307,2
1679909076642,309,2
1679909076649,308,2
1679909076657,306,2
1679909076664,306,2
1679909076671,307,2
1679909076679,305,2
1679909076686,306,2
1679909076694,303,2
1679909076701,305,2
1679909076708,306,2
1679909076716,307,2
1679909076723,306,2
1679909076731,305,2
1679909076738,302,2
1679909076745,306,2
1679909076753,306,2
1679909076760,304,2
1679909076768,303,2
1679909076775,306,2
1679909076783,307,2
1679909076790,306,2
1679909076797,305,2
1679909076805,301,2
1679909076812,302,2
1679909076820,302,2
1679909076827,304,2
1679909076834,305,2
1679909076842,306,2
1679909076849,307,2
1679909076857,306,2
1679909076864,305,2
1679909076871,304,2
1679909076879,302,2
1679909076886,300,2
1679909076894,303,2
1679909076901,305,2
1679909076908,307,2
1679909076916,308,2
1679909076923,307,2
1679909076931,302,2
1679909076938,304,2
1679909076946,300,2
1679909076953,303,2
1679909076960,304,2
1679909076968,307,2
1679909076975,307,2
1679909076983,306,2
1679909076990,306,2
1679909076997,304,2
1679909077005,300,2
1679909077012,296,2
1679909077020,296,2
1679909077027,302,2
1679909077034,306,2
1679909077042,309,2
1679909077049,308,2
1679909077057,308,2
1679909077064,307,2
1679909077071,305,2
1679909077079,304,2
1679909077086,304,2
1679909077094,299,2
1679909077101,295,2
1679909077109,300,2
1679909077116,304,2
1679909077123,307,2
1679909077131,308,2
1679909077138,308,2
1679909077146,309,2
1679909077153,306,2
1679909077160,303,2
1679909077168,299,2
1679909077175,301,2
1679909077183,305,2
1679909077190,309,2
1679909077197,311,2
1679909077205,311,2
1679909077212,309,2
1679909077220,308,2
1679909077227,304,2
1679909077235,301,2
1679909077242,299,2
1679909077249,302,2
1679909077257,305,2
1679909077264,306,2
1679909077272,309,2
1679909077279,310,2
1679909077286,310,2
1679909077294,310,2
1679909077301,310,2
1679909077309,309,2
1679909077316,307,2
1679909077323,300,2
1679909077331,300,2
1679909077338,302,2
1679909077346,303,2
1679909077353,304,2
1679909077360,307,2
1679909077368,308,2
1679909077375,306,2
1679909077383,307,2
1679909077390,307,2
1679909077397,306,2
1679909077405,304,2
1679909077412,302,2
1679909077420,297,2
1679909077427,301,2
1679909077435,306,2
1679909077442,307,2
1679909077449,306,2
1679909077457,308,2
1679909077464,309,2
1679909077472,306,2
1679909077479,302,2
1679909077486,304,2
1679909077494,305,2
1679909077501,301,2
1679909077509,304,2
1679909077516,307,2
1679909077523,308,2
1679909077531,307,2
1679909077538,307,2
1679909077546,307,2
1679909077553,305,2
1679909077560,305,2
1679909077568,307,2
1679909077575,306,2
1679909077583,302,2
1679909077590,301,2
1679909077597,305,2
1679909077605,306,2
1679909077612,305,2
1679909077620,305,2
1679909077627,309,2
1679909077635,309,2
1679909077642,309,2
1679909077649,307,2
1679909077657,302,2
1679909077664,303,2
1679909077672,305,2
1679909077679,303,2
1679909077686,306,2
1679909077694,307,2
1679909077701,306,2
1679909077709,306,2
1679909077716,307,2
1679909077723,309,2
1679909077731,308,2
1679909077738,307,2
1679909077746,306,2
1679909077753,305,2
1679909077760,304,2
1679909077768,304,2
1679909077775,302,2
1679909077783,305,2
1679909077790,306,2
1679909077798,305,2
1679909077805,306,2
1679909077812,307,2
1679909077820,306,2
1679909077827,306,2
1679909077835,306,2
1679909077842,303,2
1679909077849,302,2
1679909077857,302,2
1679909077864,305,2
1679909077872,305,2
1679909077879,306,2
1679909077887,307,2
1679909077894,306,2
1679909077901,305,2
1679909077909,306,2
1679909077916,306,2
1679909077923,303,2
1679909077931,303,2
1679909077938,305,2
1679909077946,305,2
1679909077953,304,2
1679909077960,303,2
1679909077968,301,2
1679909077975,303,2
1679909077983,304,2
1679909077990,306,2
1679909077998,306,2
1679909078005,307,2
1679909078012,308,2
1679909078020,305,2
1679909078027,303,2
1679909078035,305,2
1679909078042,303,2
1679909078049,306,2
1679909078057,308,2
1679909078064,309,2
1679909078072,307,2
1679909078079,306,2
1679909078086,307,2
1679909078094,305,2
1679909078101,308,2
1679909078109,307,2
1679909078116,305,2
1679909078124,307,2
1679909078131,305,2
1679909078138,304,2
1679909078146,306,2
1679909078153,307,2
1679909078161,309,2
1679909078168,310,2
1679909078175,309,2
1679909078183,308,2
1679909078190,308,2
1679909078198,307,2
1679909078205,305,2
1679909078212,302,2
1679909078220,302,2
1679909078227,304,2
1679909078235,305,2
1679909078242,305,2
1679909078250,306,2
1679909078257,306,2
1679909078264,306,2
1679909078272,305,2
1679909078279,303,2
1679909078286,301,2
1679909078294,299,2
1679909078301,299,2
1679909078309,305,2
1679909078316,305,2
1679909078324,307,2
1679909078331,308,2
1679909078338,308,2
1679909078346,307,2
1679909078353,306,2
1679909078361,303,2
1679909078368,302,2
1679909078375,303,2
1679909078383,305,2
1679909078390,307,2
1679909078398,307,2
1679909078405,308,2
1679909078412,307,2
1679909078420,308,2
1679909078427,308,2
1679909078435,308,2
1679909078442,307,2
1679909078449,305,2
1679909078457,302,2
1679909078464,303,2
1679909078472,303,2
1679909078479,304,2
1679909078487,305,2
1679909078494,307,2
1679909078501,308,2
1679909078509,307,2
1679909078516,305,2
1679909078524,304,2
1679909078531,302,2
1679909078538,303,2
1679909078546,306,2
1679909078553,308,2
1679909078561,308,2
1679909078568,308,2
1679909078575,307,2
1679909078583,307,2
1679909078590,306,2
1679909078598,304,2
1679909078605,300,2
1679909078613,301,2
1679909078620,305,2
1679909078627,307,2
1679909078635,307,2
1679909078642,308,2
1679909078650,307,2
1679909078657,307,2
1679909078664,308,2
1679909078672,306,2
1679909078679,303,2
1679909078687,304,2
1679909078694,306,2
1679909078701,306,2
1679909078709,305,2
1679909078716,304,2
1679909078724,304,2
1679909078731,304,2
1679909078738,303,2
1679909078746,303,2
1679909078753,304,2
1679909078761,304,2
1679909078768,303,2
1679909078775,303,2
1679909078783,303,2
1679909078790,305,2
1679909078798,304,2
1679909078805,305,2
1679909078813,306,2
1679909078820,305,2
1679909078827,308,2
1679909078835,309,2
1679909078842,308,2
1679909078850,308,2
1679909078857,308,2
1679909078864,307,2
1679909078872,305,2
1679909078879,301,2
1679909078887,303,2
1679909078894,306,2
1679909078901,307,2
1679909078909,307,2
1679909078916,306,2
1679909078924,306,2
1679909078931,306,2
1679909078938,306,2
1679909078946,305,2
1679909078953,305,2
1679909078961,304,2
1679909078968,302,2
1679909078976,300,2
1679909078983,300,2
1679909078999,302,2
1679909079000,304,2
1679909079006,304,2
1679909079016,305,2
1679909079020,306,2
1679909079027,307,2
1679909079037,307,2
1679909079042,306,2
1679909079050,305,2
1679909079057,303,2
1679909079064,303,2
1679909079072,303,2
1679909079079,305,2
1679909079087,303,2
1679909079094,305,2
1679909079102,308,2
1679909079109,308,2
1679909079116,305,2
1679909079124,304,2
1679909079131,304,2
1679909079139,306,2
1679909079146,306,2
1679909079153,308,2
1679909079161,308,2
1679909079168,308,2
1679909079176,307,2
1679909079183,306,2
1679909079190,307,2
1679909079198,305,2
1679909079205,304,2
1679909079213,303,2
1679909079220,303,2
1679909079227,303,2
1679909079235,305,2
1679909079242,307,2
1679909079250,306,2
1679909079257,306,2
1679909079264,306,2
1679909079272,306,2
1679909079279,306,2
1679909079287,306,2
1679909079294,305,2
1679909079302,305,2
1679909079309,303,2
1679909079316,302,2
1679909079324,301,2
1679909079331,304,2
1679909079339,306,2
1679909079346,307,2
1679909079353,307,2
1679909079361,307,2
1679909079368,307,2
1679909079376,307,2
1679909079383,306,2
1679909079390,305,2
1679909079398,302,2
1679909079405,300,2
1679909079413,302,2
1679909079420,301,2
1679909079427,304,2
1679909079435,305,2
1679909079442,306,2
1679909079450,304,2
1679909079457,304,2
1679909079465,304,2
1679909079472,304,2
1679909079479,304,2
1679909079487,302,2
1679909079494,300,2
1679909079502,303,2
1679909079509,305,2
1679909079516,303,2
1679909079524,302,2
1679909079531,306,2
1679909079539,307,2
1679909079546,307,2
1679909079553,307,2
1679909079561,306,2
1679909079568,305,2
1679909079576,304,2
1679909079583,301,2
1679909079590,301,2
1679909079598,302,2
1679909079605,304,2
1679909079613,306,2
1679909079620,306,2
1679909079627,304,2
1679909079635,304,2
1679909079642,306,2
1679909079650,306,2
1679909079657,306,2
1679909079665,303,2
1679909079672,303,2
1679909079679,304,2
1679909079687,305,2
1679909079694,302,2
1679909079702,301,2
1679909079709,303,2
1679909079716,304,2
1679909079724,305,2
1679909079731,306,2
1679909079739,305,2
1679909079746,305,2
1679909079753,305,2
1679909079761,306,2
1679909079768,306,2
1679909079776,305,2
1679909079783,303,2
1679909079791,302,2
1679909079798,303,2
1679909079805,305,2
1679909079813,305,2
1679909079820,305,2
1679909079828,306,2
1679909079835,306,2
1679909079842,303,2
1679909079850,303,2
1679909079857,305,2
1679909079865,306,2
1679909079872,306,2
1679909079879,306,2
1679909079887,304,2
1679909079894,304,2
1679909079902,305,2
1679909079909,306,2
1679909079916,304,2
1679909079924,304,2
1679909079931,305,2
1679909079939,306,2
1679909079946,306,2
1679909079953,308,2
1679909079961,307,2
1679909079968,306,2
1679909079976,306,2
1679909079983,306,2
1679909079991,303,2
1679909079998,304,2
1679909080005,308,2
1679909080013,309,2
1679909080020,308,2
1679909080028,309,2
1679909080035,308,2
1679909080042,307,2
1679909080050,303,2
1679909080057,304,2
1679909080065,305,2
1679909080072,305,2
1679909080079,304,2
1679909080087,303,2
1679909080094,304,2
1679909080102,305,2
1679909080109,303,2
1679909080116,303,2
1679909080124,304,2
1679909080131,305,2
1679909080139,304,2
1679909080146,304,2
1679909080154,305,2
1679909080161,305,2
1679909080168,306,2
1679909080176,306,2
1679909080183,306,2
1679909080191,305,2
1679909080198,304,2
1679909080205,302,2
1679909080213,299,2
1679909080220,301,2
1679909080228,303,2
1679909080235,304,2
1679909080242,306,2
1679909080250,306,2
1679909080257,306,2
1679909080265,307,2
1679909080272,306,2
1679909080279,305,2
1679909080287,305,2
1679909080294,302,2
1679909080302,300,2
1679909080309,303,2
1679909080317,305,2
1679909080324,306,2
1679909080331,307,2
1679909080339,307,2
1679909080346,307,2
1679909080354,307,2
1679909080361,307,2
1679909080368,307,2
1679909080376,305,2
1679909080383,300,2
1679909080391,303,2
1679909080398,306,2
1679909080405,305,2
1679909080413,305,2
1679909080420,306,2
1679909080428,306,2
1679909080435,309,2
1679909080442,310,2
1679909080450,310,2
1679909080457,310,2
1679909080465,309,2
1679909080472,308,2
1679909080480,307,2
1679909080487,307,2
1679909080494,303,2
1679909080502,300,2
1679909080509,304,2
1679909080517,306,2
1679909080524,306,2
1679909080531,307,2
1679909080539,307,2
1679909080555,307,2
1679909080555,306,2
1679909080561,304,2
1679909080568,304,2
1679909080576,303,2
1679909080583,302,2
1679909080591,302,2
1679909080598,303,2
1679909080605,304,2
1679909080613,304,2
1679909080620,304,2
1679909080628,305,2
1679909080635,305,2
1679909080642,304,2
1679909080650,304,2
1679909080657,305,2
1679909080665,305,2
1679909080672,304,2
1679909080680,303,2
1679909080687,304,2
1679909080694,304,2
1679909080702,305,2
1679909080709,306,2
1679909080717,305,2
1679909080724,304,2
1679909080731,303,2
1679909080739,303,2
1679909080746,304,2
1679909080754,304,2
1679909080761,304,2
1679909080768,302,2
1679909080776,303,2
1679909080783,304,2
1679909080791,305,2
1679909080798,303,2
1679909080805,302,2
1679909080813,304,2
1679909080820,306,2
1679909080828,309,2
1679909080835,309,2
1679909080843,308,2
1679909080850,308,2
1679909080857,306,2
1679909080865,304,2
1679909080872,305,2
1679909080880,306,2
1679909080887,304,2
1679909080894,306,2
1679909080902,306,2
1679909080909,307,2
1679909080917,307,2
1679909080924,306,2
1679909080931,307,2
1679909080939,307,2
1679909080946,305,2
1679909080954,305,2
1679909080961,305,2
1679909080968,306,2
1679909080976,304,2
1679909080983,303,2
1679909080991,301,2
1679909080998,302,2
1679909081006,305,2
1679909081013,308,2
1679909081020,309,2
1679909081028,309,2
1679909081035,308,2
1679909081043,306,2
1679909081050,304,2
1679909081057,301,2
1679909081065,303,2
1679909081072,304,2
1679909081080,307,2
1679909081087,305,2
1679909081094,305,2
1679909081102,307,2
1679909081109,310,2
1679909081117,309,2
1679909081124,307,2
1679909081132,308,2
1679909081139,308,2
1679909081146,307,2
1679909081154,304,2
1679909081161,304,2
1679909081169,305,2
1679909081176,306,2
1679909081183,305,2
1679909081191,305,2
1679909081198,304,2
1679909081206,304,2
1679909081213,304,2
1679909081220,303,2
1679909081228,300,2
1679909081235,301,2
1679909081243,303,2
1679909081250,303,2
1679909081257,302,2
1679909081265,304,2
1679909081272,304,2
1679909081280,304,2
1679909081287,303,2
1679909081294,304,2
1679909081302,303,2
1679909081309,305,2
1679909081317,304,2
1679909081324,301,2
1679909081332,301,2
1679909081339,304,2
1679909081346,307,2
1679909081354,308,2
1679909081361,307,2
1679909081369,307,2
1679909081376,306,2
1679909081383,306,2
1679909081391,306,2
1679909081398,299,2
1679909081406,302,2
1679909081413,306,2
1679909081420,307,2
1679909081428,306,2
1679909081435,308,2
1679909081443,308,2
1679909081450,308,2
1679909081457,307,2
1679909081465,306,2
1679909081472,306,2
1679909081480,302,2
1679909081487,302,2
1679909081495,301,2
1679909081502,301,2
1679909081509,304,2
1679909081517,305,2
1679909081524,306,2
1679909081532,307,2
1679909081539,306,2
1679909081546,307,2
1679909081554,306,2
1679909081561,305,2
1679909081569,303,2
1679909081576,303,2
1679909081583,303,2
1679909081591,303,2
1679909081598,303,2
1679909081606,303,2
1679909081613,302,2
1679909081621,302,2
1679909081628,302,2
1679909081635,301,2
1679909081643,300,2
1679909081650,300,2
1679909081657,304,2
1679909081665,303,2
1679909081672,306,2
1679909081680,304,2
1679909081687,305,2
1679909081695,302,2
1679909081702,305,2
1679909081709,308,2
1679909081717,308,2
1679909081724,308,2
1679909081732,308,2
1679909081739,309,2
1679909081746,306,2
1679909081754,306,2
1679909081761,307,2
1679909081769,306,2
1679909081776,306,2
1679909081783,308,2
1679909081791,308,2
1679909081798,308,2
1679909081806,309,2
1679909081813,307,2
1679909081820,302,2
1679909081828,302,2
1679909081835,304,2
1679909081843,305,2
1679909081850,302,2
1679909081858,305,2
1679909081865,307,2
1679909081872,308,2
1679909081880,308,2
1679909081887,308,2
1679909081895,306,2
1679909081902,302,2
1679909081909,304,2
1679909081917,303,2
1679909081924,303,2
1679909081932,306,2
1679909081939,307,2
1679909081946,308,2
1679909081954,307,2
1679909081961,305,2
1679909081969,303,2
1679909081976,302,2
1679909081983,304,2
1679909081991,304,2
1679909081998,305,2
1679909082006,305,2
1679909082013,307,2
1679909082021,308,2
1679909082028,307,2
1679909082035,304,2
1679909082043,294,2
1679909082050,298,2
1679909082058,300,2
1679909082065,303,2
1679909082072,306,2
1679909082080,308,2
1679909082087,311,2
1679909082095,309,2
1679909082102,307,2
1679909082109,303,2
1679909082117,305,2
1679909082124,307,2
1679909082132,308,2
1679909082139,307,2
1679909082147,307,2
1679909082154,309,2
1679909082161,309,2
1679909082169,306,2
1679909082176,304,2
1679909082184,307,2
1679909082191,306,2
1679909082198,308,2
1679909082206,307,2
1679909082213,308,2
1679909082221,308,2
1679909082228,305,2
1679909082236,303,2
1679909082243,304,2
1679909082250,303,2
1679909082258,304,2
1679909082265,308,2
1679909082272,309,2
1679909082280,309,2
1679909082287,308,2
1679909082295,307,2
1679909082302,304,2
1679909082309,298,2
1679909082317,303,2
1679909082324,307,2
1679909082332,309,2
1679909082339,310,2
1679909082347,309,2
1679909082354,308,2
1679909082361,304,2
1679909082369,301,2
1679909082376,301,2
1679909082384,297,2
1679909082391,301,2
1679909082398,304,2
1679909082406,305,2
1679909082413,305,2
1679909082421,304,2
1679909082428,304,2
1679909082435,305,2
1679909082443,305,2
1679909082450,302,2
1679909082458,305,2
1679909082465,306,2
1679909082472,306,2
1679909082480,304,2
1679909082487,304,2
1679909082495,305,2
1679909082502,306,2
1679909082509,307,2
1679909082517,305,2
1679909082524,305,2
1679909082532,305,2
1679909082539,304,2
1679909082547,304,2
1679909082554,303,2
1679909082561,301,2
1679909082569,298,2
1679909082576,300,2
1679909082584,304,2
1679909082591,304,2
1679909082598,303,2
1679909082606,304,2
1679909082613,302,2
1679909082621,302,2
1679909082628,302,2
1679909082635,305,2
1679909082643,306,2
1679909082650,306,2
1679909082658,306,2
1679909082665,306,2
1679909082673,307,2
1679909082680,304,2
1679909082687,303,2
1679909082695,304,2
1679909082702,306,2
1679909082710,307,2
1679909082717,307,2
1679909082724,302,2
1679909082732,296,2
1679909082739,302,2
1679909082747,305,2
1679909082754,308,2
1679909082761,309,2
1679909082769,308,2
1679909082776,303,2
1679909082784,301,2
1679909082791,305,2
1679909082798,307,2
1679909082806,307,2
1679909082813,304,2
1679909082821,299,2
1679909082828,302,2
1679909082836,305,2
1679909082843,306,2
1679909082850,306,2
1679909082858,303,2
1679909082865,305,2
1679909082873,306,2
1679909082880,305,2
1679909082887,305,2
1679909082895,304,2
1679909082902,301,2
1679909082910,304,2
1679909082917,305,2
1679909082924,305,2
1679909082932,303,2
1679909082939,305,2
1679909082947,307,2
1679909082954,307,2
1679909082961,303,2
1679909082969,302,2
1679909082976,305,2
1679909082984,306,2
1679909082991,308,2
1679909082999,307,2
1679909083006,305,2
1679909083013,304,2
1679909083021,304,2
1679909083028,304,2
1679909083036,304,2
1679909083043,305,2
1679909083050,308,2
1679909083058,309,2
1679909083065,305,2
1679909083073,304,2
1679909083080,305,2
1679909083087,299,2
1679909083095,304,2
1679909083102,310,2
1679909083110,313,2
1679909083117,312,2
1679909083124,310,2
1679909083132,308,2
1679909083139,306,2
1679909083147,304,2
1679909083154,304,2
1679909083161,303,2
1679909083169,305,2
1679909083176,304,2
1679909083184,304,2
1679909083191,304,2
1679909083199,303,2
1679909083206,302,2
1679909083213,304,2
1679909083221,303,2
1679909083228,305,2
1679909083236,306,2
1679909083243,306,2
1679909083250,304,2
1679909083258,306,2
1679909083265,307,2
1679909083273,306,2
1679909083280,302,2
1679909083287,299,2
1679909083295,299,2
1679909083302,302,2
1679909083310,305,2
1679909083317,307,2
1679909083324,305,2
1679909083332,303,2
1679909083339,306,2
1679909083347,308,2
1679909083354,309,2
1679909083362,307,2
1679909083369,307,2
1679909083376,306,2
1679909083384,302,2
1679909083391,302,2
1679909083399,301,2
1679909083406,304,2
1679909083413,304,2
1679909083421,305,2
1679909083428,305,2
1679909083436,303,2
1679909083443,305,2
1679909083450,306,2
1679909083458,305,2
1679909083465,303,2
1679909083473,305,2
1679909083480,305,2
1679909083487,305,2
1679909083495,305,2
1679909083502,305,2
1679909083510,304,2
1679909083517,303,2
1679909083525,306,2
1679909083532,304,2
1679909083539,304,2
1679909083547,306,2
1679909083554,306,2
1679909083562,307,2
1679909083569,307,2
1679909083576,309,2
1679909083584,308,2
1679909083591,305,2
1679909083599,306,2
1679909083606,305,2
1679909083613,302,2
1679909083621,303,2
1679909083628,305,2
1679909083636,308,2
1679909083643,308,2
1679909083650,304,2
1679909083658,301,2
1679909083665,306,2
1679909083673,307,2
1679909083680,308,2
1679909083688,305,2
1679909083695,308,2
1679909083702,307,2
1679909083710,306,2
1679909083717,305,2
1679909083725,306,2
1679909083732,306,2
1679909083739,305,2
1679909083747,303,2
1679909083754,305,2
1679909083762,304,2
1679909083769,304,2
1679909083776,305,2
1679909083784,304,2
1679909083791,304,2
1679909083799,304,2
1679909083806,304,2
1679909083813,303,2
1679909083821,303,2
1679909083828,303,2
1679909083836,303,2
1679909083843,303,2
1679909083851,301,2
1679909083858,298,2
1679909083865,299,2
1679909083873,300,2
1679909083880,300,2
1679909083888,302,2
1679909083895,305,2
1679909083902,307,2
1679909083910,309,2
1679909083917,309,2
1679909083925,307,2
1679909083932,307,2
1679909083939,306,2
1679909083947,306,2
1679909083954,304,2
1679909083962,305,2
1679909083969,307,2
1679909083976,308,2
1679909083984,310,2
1679909083991,310,2
1679909083999,309,2
1679909084006,309,2
1679909084013,307,2
1679909084021,305,2
1679909084028,306,2
1679909084036,306,2
1679909084043,305,2
1679909084051,308,2
1679909084058,308,2
1679909084065,306,2
1679909084073,304,2
1679909084080,303,2
1679909084088,304,2
1679909084095,305,2
1679909084102,303,2
1679909084110,303,2
1679909084117,303,2
1679909084125,306,2
1679909084132,305,2
1679909084139,305,2
1679909084147,305,2
1679909084154,306,2
1679909084162,305,2
1679909084169,304,2
1679909084176,304,2
1679909084184,302,2
1679909084191,306,2
1679909084199,306,2
1679909084206,304,2
1679909084214,303,2
1679909084221,305,2
1679909084228,306,2
1679909084236,301,2
1679909084243,301,2
1679909084251,305,2
1679909084258,307,2
1679909084265,307,2
1679909084273,307,2
1679909084280,305,2
1679909084288,307,2
1679909084295,308,2
1679909084303,308,2
1679909084310,308,2
1679909084317,308,2
1679909084325,307,2
1679909084332,306,2
1679909084340,305,2
1679909084347,304,2
1679909084354,303,2
1679909084362,302,2
1679909084369,302,2
1679909084376,302,2
1679909084384,302,2
1679909084391,302,2
1679909084399,300,2
1679909084406,301,2
1679909084414,303,2
1679909084421,304,2
1679909084428,303,2
1679909084436,301,2
1679909084443,304,2
1679909084451,305,2
1679909084458,305,2
1679909084465,301,2
1679909084473,301,2
1679909084480,301,2
1679909084488,306,2
1679909084495,306,2
1679909084502,305,2
1679909084510,305,2
1679909084517,306,2
1679909084525,306,2
1679909084532,303,2
1679909084540,303,2
1679909084547,304,2
1679909084554,306,2
1679909084562,308,2
1679909084569,308,2
1679909084577,307,2
1679909084584,304,2
1679909084591,304,2
1679909084599,306,2
1679909084606,304,2
1679909084614,304,2
1679909084621,304,2
1679909084628,306,2
1679909084636,307,2
1679909084643,306,2
1679909084651,304,2
1679909084658,302,2
1679909084665,303,2
1679909084673,306,2
1679909084680,305,2
1679909084688,300,2
1679909084695,302,2
1679909084703,304,2
1679909084710,305,2
1679909084717,305,2
1679909084725,303,2
1679909084732,303,2
1679909084740,304,2
1679909084747,304,2
1679909084754,304,2
1679909084762,303,2
1679909084769,302,2
1679909084777,304,2
1679909084784,303,2
1679909084791,305,2
1679909084799,305,2
1679909084806,307,2
1679909084814,308,2
1679909084821,306,2
1679909084828,305,2
1679909084836,306,2
1679909084843,306,2
1679909084851,303,2
1679909084858,304,2
1679909084866,304,2
1679909084873,304,2
1679909084880,305,2
1679909084888,306,2
1679909084895,308,2
1679909084903,309,2
1679909084910,309,2
1679909084917,308,2
1679909084925,307,2
1679909084932,305,2
1679909084940,303,2
1679909084947,303,2
1679909084954,302,2
1679909084962,303,2
1679909084969,306,2
1679909084977,309,2
1679909084984,308,2
1679909084991,306,2
1679909084999,305,2
1679909085006,304,2
1679909085014,305,2
1679909085021,305,2
1679909085029,305,2
1679909085036,305,2
1679909085043,304,2
1679909085051,303,2
1679909085058,303,2
1679909085066,301,2
1679909085073,304,2
1679909085080,306,2
1679909085088,305,2
1679909085095,304,2
1679909085103,306,2
1679909085110,307,2
1679909085117,308,2
1679909085125,308,2
1679909085132,306,2
1679909085140,303,2
1679909085147,302,2
1679909085155,301,2
1679909085162,302,2
1679909085169,304,2
1679909085177,306,2
1679909085184,307,2
1679909085192,306,2
1679909085199,305,2
1679909085206,307,2
1679909085214,307,2
1679909085221,305,2
1679909085229,303,2
1679909085236,303,2
1679909085243,306,2
1679909085251,307,2
1679909085258,306,2
1679909085266,306,2
1679909085273,307,2
1679909085280,306,2
1679909085288,305,2
1679909085295,305,2
1679909085303,304,2
1679909085310,304,2
1679909085317,303,2
1679909085325,302,2
1679909085332,302,2
1679909085340,301,2
1679909085347,301,2
1679909085355,300,2
1679909085362,302,2
1679909085369,303,2
1679909085377,301,2
1679909085384,303,2
1679909085392,306,2
1679909085399,307,2
1679909085406,306,2
1679909085414,307,2
1679909085421,306,2
1679909085429,304,2
1679909085436,304,2
1679909085443,304,2
1679909085451,304,2
1679909085458,304,2
1679909085466,304,2
1679909085473,306,2
1679909085480,306,2
1679909085488,304,2
1679909085495,304,2
1679909085503,301,2
1679909085510,305,2
1679909085518,304,2
1679909085525,301,2
1679909085532,304,2
1679909085540,306,2
1679909085547,305,2
1679909085555,306,2
1679909085562,307,2
1679909085569,308,2
1679909085577,307,2
1679909085584,303,2
1679909085592,303,2
1679909085599,305,2
1679909085606,307,2
1679909085614,308,2
1679909085621,308,2
1679909085629,308,2
1679909085636,309,2
1679909085643,308,2
1679909085651,307,2
1679909085658,306,2
1679909085666,302,2
1679909085673,303,2
1679909085680,300,2
1679909085688,301,2
1679909085695,301,2
1679909085703,304,2
1679909085710,307,2
1679909085718,307,2
1679909085725,308,2
1679909085732,308,2
1679909085740,307,2
1679909085747,304,2
1679909085755,303,2
1679909085762,304,2
1679909085769,305,2
1679909085777,305,2
1679909085784,304,2
1679909085792,304,2
1679909085799,303,2
1679909085806,304,2
1679909085814,303,2
1679909085821,302,2
1679909085829,304,2
1679909085836,305,2
1679909085844,304,2
1679909085851,305,2
1679909085858,305,2
1679909085866,305,2
1679909085873,303,2
1679909085881,303,2
1679909085888,304,2
1679909085895,305,2
1679909085903,304,2
1679909085910,305,2
1679909085918,305,2
1679909085925,306,2
1679909085932,307,2
1679909085940,306,2
1679909085947,303,2
1679909085955,302,2
1679909085962,302,2
1679909085969,304,2
1679909085977,306,2
1679909085984,305,2
1679909085992,305,2
1679909085999,306,2
1679909086006,307,2
1679909086014,306,2
1679909086021,305,2
1679909086029,302,2
1679909086036,299,2
1679909086044,303,2
1679909086051,306,2
1679909086058,307,2
1679909086066,305,2
1679909086073,307,2
1679909086081,307,2
1679909086088,307,2
1679909086095,307,2
1679909086103,305,2
1679909086110,303,2
1679909086118,303,2
1679909086125,302,2
1679909086132,303,2
1679909086140,306,2
1679909086147,307,2
1679909086155,307,2
1679909086162,307,2
1679909086170,305,2
1679909086177,306,2
1679909086184,304,2
1679909086192,306,2
1679909086199,305,2
1679909086207,306,2
1679909086214,305,2
1679909086221,304,2
1679909086229,306,2
1679909086236,305,2
1679909086244,305,2
1679909086251,306,2
1679909086258,305,2
1679909086266,305,2
1679909086273,305,2
1679909086281,304,2
1679909086288,303,2
1679909086295,302,2
1679909086303,303,2
1679909086310,306,2
1679909086318,305,2
1679909086325,303,2
1679909086332,303,2
1679909086340,301,2
1679909086347,302,2
1679909086355,303,2
1679909086362,305,2
1679909086369,308,2
1679909086377,309,2
1679909086384,309,2
1679909086392,308,2
1679909086399,305,2
1679909086406,305,2
1679909086414,304,2
1679909086421,304,2
1679909086429,306,2
1679909086436,308,2
1679909086444,309,2
1679909086451,309,2
1679909086459,308,2
1679909086466,306,2
1679909086473,307,2
1679909086484,307,2
1679909086488,305,2
1679909086495,305,2
1679909086503,305,2
1679909086510,302,2
1679909086518,303,2
1679909086525,307,2
1679909086532,309,2
1679909086540,309,2
1679909086547,309,2
1679909086555,307,2
1679909086562,305,2
1679909086570,306,2
1679909086577,303,2
1679909086584,304,2
1679909086592,307,2
1679909086599,307,2
1679909086607,306,2
1679909086614,308,2
1679909086621,309,2
1679909086629,307,2
1679909086636,305,2
1679909086644,307,2
1679909086651,305,2
1679909086658,305,2
1679909086666,304,2
1679909086673,305,2
1679909086681,304,2
1679909086688,305,2
1679909086695,304,2
1679909086703,305,2
1679909086710,306,2
1679909086718,305,2
1679909086725,306,2
1679909086733,306,2
1679909086740,304,2
1679909086747,305,2
1679909086755,305,2
1679909086762,304,2
1679909086770,304,2
1679909086777,302,2
1679909086784,302,2
1679909086792,302,2
1679909086799,300,2
1679909086807,303,2
1679909086814,306,2
1679909086821,306,2
1679909086829,307,2
1679909086836,306,2
1679909086844,305,2
1679909086851,306,2
1679909086859,302,2
1679909086866,300,2
1679909086873,301,2
1679909086881,302,2
1679909086888,305,2
1679909086896,306,2
1679909086903,307,2
1679909086910,307,2
1679909086918,305,2
1679909086925,302,2
1679909086933,303,2
1679909086940,303,2
1679909086947,304,2
1679909086955,306,2
1679909086962,305,2
1679909086970,306,2
1679909086977,307,2
1679909086985,306,2
1679909086992,305,2
