1679909286858,303,2
1679909286865,300,2
1679909286873,298,2
1679909286880,300,2
1679909286887,301,2
1679909286895,300,2
1679909286902,297,2
1679909286910,303,2
1679909286917,307,2
1679909286924,310,2
1679909286932,307,2
1679909286939,304,2
1679909286947,306,2
1679909286954,308,2
1679909286961,308,2
1679909286969,311,2
1679909286976,311,2
1679909286984,312,2
1679909286991,310,2
1679909286998,310,2
1679909287006,309,2
1679909287013,307,2
1679909287021,307,2
1679909287028,305,2
1679909287035,304,2
1679909287043,304,2
1679909287050,303,2
1679909287058,301,2
1679909287065,301,2
1679909287072,302,2
1679909287080,302,2
1679909287087,299,2
1679909287095,303,2
1679909287102,305,2
1679909287110,305,2
1679909287117,304,2
1679909287124,304,2
1679909287132,304,2
1679909287139,307,2
1679909287147,308,2
1679909287154,306,2
1679909287161,305,2
1679909287169,306,2
1679909287176,307,2
1679909287184,305,2
1679909287191,309,2
1679909287198,311,2
1679909287206,310,2
1679909287213,310,2
1679909287221,310,2
1679909287228,309,2
1679909287235,305,2
1679909287243,304,2
1679909287250,304,2
1679909287258,305,2
1679909287265,304,2
1679909287272,303,2
1679909287280,305,2
1679909287287,305,2
1679909287295,305,2
1679909287302,306,2
1679909287309,305,2
1679909287317,305,2
1679909287324,305,2
1679909287332,305,2
1679909287339,304,2
1679909287346,304,2
1679909287354,303,2
1679909287361,303,2
1679909287369,301,2
1679909287376,298,2
1679909287384,300,2
1679909287391,301,2
1679909287398,305,2
1679909287406,305,2
1679909287413,305,2
1679909287421,306,2
1679909287428,308,2
1679909287435,308,2
1679909287443,305,2
1679909287450,302,2
1679909287458,304,2
1679909287465,307,2
1679909287472,307,2
1679909287480,306,2
1679909287487,303,2
1679909287495,302,2
1679909287502,304,2
1679909287509,305,2
1679909287517,305,2
1679909287524,306,2
1679909287532,306,2
1679909287539,308,2
1679909287546,309,2
1679909287554,307,2
1679909287561,307,2
1679909287569,308,2
1679909287576,307,2
1679909287584,305,2
1679909287591,301,2
1679909287598,306,2
1679909287606,308,2
1679909287613,308,2
1679909287621,308,2
1679909287628,308,2
1679909287635,305,2
1679909287643,305,2
1679909287650,305,2
1679909287658,305,2
1679909287665,304,2
1679909287672,303,2
1679909287680,303,2
1679909287687,302,2
1679909287695,304,2
1679909287702,304,2
1679909287709,302,2
1679909287717,301,2
1679909287724,304,2
1679909287732,305,2
1679909287739,306,2
1679909287746,305,2
1679909287754,302,2
1679909287761,304,2
1679909287769,305,2
1679909287776,303,2
1679909287783,301,2
1679909287791,303,2
1679909287798,305,2
1679909287806,308,2
1679909287813,306,2
1679909287820,306,2
1679909287828,308,2
1679909287835,309,2
1679909287843,306,2
1679909287850,305,2
1679909287858,308,2
1679909287865,310,2
1679909287872,308,2
1679909287880,307,2
1679909287887,308,2
1679909287895,307,2
1679909287902,306,2
1679909287909,304,2
1679909287917,302,2
1679909287924,302,2
1679909287932,304,2
1679909287939,306,2
1679909287946,307,2
1679909287954,307,2
1679909287961,307,2
1679909287969,306,2
1679909287976,305,2
1679909287983,305,2
1679909287991,304,2
1679909287998,303,2
1679909288006,302,2
1679909288013,302,2
1679909288020,302,2
1679909288028,301,2
1679909288035,300,2
1679909288043,301,2
1679909288050,302,2
1679909288058,303,2
1679909288065,304,2
1679909288072,303,2
1679909288080,301,2
1679909288087,300,2
1679909288095,301,2
1679909288102,303,2
1679909288109,302,2
1679909288117,305,2
1679909288124,307,2
1679909288132,306,2
1679909288139,307,2
1679909288146,303,2
1679909288154,305,2
1679909288161,307,2
1679909288169,308,2
1679909288176,308,2
1679909288183,307,2
1679909288191,305,2
1679909288198,303,2
1679909288206,304,2
1679909288213,303,2
1679909288220,299,2
1679909288228,305,2
1679909288235,308,2
1679909288243,308,2
1679909288250,308,2
1679909288257,305,2
1679909288265,303,2
1679909288272,305,2
1679909288280,307,2
1679909288287,307,2
1679909288295,305,2
1679909288302,302,2
1679909288309,302,2
1679909288317,303,2
1679909288324,305,2
1679909288332,307,2
1679909288339,307,2
1679909288346,306,2
1679909288354,305,2
1679909288361,305,2
1679909288369,305,2
1679909288376,305,2
1679909288383,306,2
1679909288391,305,2
1679909288398,304,2
1679909288406,304,2
1679909288413,303,2
1679909288420,302,2
1679909288428,303,2
1679909288435,303,2
1679909288443,301,2
1679909288450,300,2
1679909288457,303,2
1679909288465,305,2
1679909288472,305,2
1679909288480,305,2
1679909288487,304,2
1679909288494,302,2
1679909288502,302,2
1679909288509,307,2
1679909288517,307,2
1679909288524,305,2
1679909288532,307,2
1679909288539,309,2
1679909288546,309,2
1679909288554,307,2
1679909288561,307,2
1679909288569,308,2
1679909288576,309,2
1679909288583,309,2
1679909288591,308,2
1679909288598,308,2
1679909288606,308,2
1679909288613,307,2
1679909288620,306,2
1679909288628,305,2
1679909288635,304,2
1679909288643,305,2
1679909288650,305,2
1679909288657,304,2
1679909288665,305,2
1679909288672,304,2
1679909288680,304,2
1679909288687,304,2
1679909288694,302,2
1679909288702,300,2
1679909288709,302,2
1679909288717,303,2
1679909288724,303,2
1679909288731,304,2
1679909288739,305,2
1679909288746,305,2
1679909288754,304,2
1679909288761,301,2
1679909288768,304,2
1679909288776,305,2
1679909288783,308,2
1679909288791,308,2
1679909288798,308,2
1679909288806,308,2
1679909288813,308,2
1679909288820,309,2
1679909288828,307,2
1679909288835,302,2
1679909288843,302,2
1679909288850,305,2
1679909288857,307,2
1679909288865,309,2
1679909288872,309,2
1679909288880,309,2
1679909288887,309,2
1679909288894,309,2
1679909288902,310,2
1679909288909,309,2
1679909288917,308,2
1679909288924,305,2
1679909288931,305,2
1679909288939,307,2
1679909288946,307,2
1679909288954,307,2
1679909288961,308,2
1679909288968,308,2
1679909288976,307,2
1679909288983,302,2
1679909288991,301,2
1679909288998,302,2
1679909289006,307,2
1679909289013,308,2
1679909289020,309,2
1679909289028,310,2
1679909289035,310,2
1679909289043,310,2
1679909289050,309,2
1679909289057,308,2
1679909289065,306,2
1679909289072,305,2
1679909289080,302,2
1679909289087,303,2
1679909289094,306,2
1679909289102,308,2
1679909289109,309,2
1679909289117,310,2
1679909289124,311,2
1679909289131,310,2
1679909289139,307,2
1679909289146,307,2
1679909289154,305,2
1679909289161,304,2
1679909289168,307,2
1679909289176,308,2
1679909289183,309,2
1679909289191,310,2
1679909289198,310,2
1679909289205,309,2
1679909289213,308,2
1679909289220,304,2
1679909289228,304,2
1679909289235,305,2
1679909289243,305,2
1679909289250,306,2
1679909289257,305,2
1679909289265,305,2
1679909289272,307,2
1679909289280,306,2
1679909289287,305,2
1679909289294,306,2
1679909289302,306,2
1679909289309,306,2
1679909289316,304,2
1679909289324,304,2
1679909289331,304,2
1679909289339,304,2
1679909289346,302,2
1679909289354,301,2
1679909289361,301,2
1679909289368,302,2
1679909289376,304,2
1679909289383,305,2
1679909289391,306,2
1679909289398,306,2
1679909289406,306,2
1679909289413,305,2
1679909289420,305,2
1679909289428,305,2
1679909289435,305,2
1679909289442,305,2
1679909289450,304,2
1679909289457,302,2
1679909289465,299,2
1679909289472,298,2
1679909289480,302,2
1679909289487,303,2
1679909289494,304,2
1679909289502,302,2
1679909289509,304,2
1679909289517,305,2
1679909289524,306,2
1679909289531,305,2
1679909289539,303,2
1679909289546,301,2
1679909289554,299,2
1679909289561,300,2
1679909289568,302,2
1679909289576,301,2
1679909289583,303,2
1679909289591,305,2
1679909289598,305,2
1679909289605,306,2
1679909289613,306,2
1679909289620,305,2
1679909289628,306,2
1679909289635,303,2
1679909289642,303,2
1679909289650,305,2
1679909289657,306,2
1679909289665,307,2
1679909289672,306,2
1679909289680,305,2
1679909289687,304,2
1679909289694,303,2
1679909289702,303,2
1679909289709,302,2
1679909289717,301,2
1679909289724,300,2
1679909289731,299,2
1679909289739,299,2
1679909289746,301,2
1679909289754,301,2
1679909289761,301,2
1679909289768,301,2
1679909289776,301,2
1679909289783,302,2
1679909289791,301,2
1679909289798,298,2
1679909289805,300,2
1679909289813,302,2
1679909289820,302,2
1679909289828,300,2
1679909289835,302,2
1679909289842,304,2
1679909289850,305,2
1679909289857,303,2
1679909289865,303,2
1679909289872,304,2
1679909289879,305,2
1679909289887,305,2
1679909289894,303,2
1679909289902,306,2
1679909289909,306,2
1679909289916,306,2
1679909289924,307,2
1679909289931,307,2
1679909289939,307,2
1679909289946,302,2
1679909289954,302,2
1679909289961,305,2
1679909289968,308,2
1679909289976,307,2
1679909289983,309,2
1679909289991,310,2
1679909289998,310,2
1679909290005,309,2
1679909290013,307,2
1679909290020,306,2
1679909290028,305,2
1679909290035,302,2
1679909290042,301,2
1679909290050,303,2
1679909290057,303,2
1679909290065,307,2
1679909290072,309,2
1679909290079,309,2
1679909290087,309,2
1679909290094,308,2
1679909290102,307,2
1679909290109,305,2
1679909290116,303,2
1679909290124,304,2
1679909290131,305,2
1679909290139,306,2
1679909290146,307,2
1679909290153,305,2
1679909290161,303,2
1679909290168,299,2
1679909290176,303,2
1679909290183,305,2
1679909290191,305,2
1679909290198,304,2
1679909290205,306,2
1679909290213,307,2
1679909290220,306,2
1679909290228,307,2
1679909290235,306,2
1679909290242,304,2
1679909290250,301,2
1679909290257,301,2
1679909290265,301,2
1679909290272,300,2
1679909290279,302,2
1679909290287,306,2
1679909290294,307,2
1679909290302,307,2
1679909290309,305,2
1679909290316,305,2
1679909290324,305,2
1679909290331,303,2
1679909290339,303,2
1679909290346,301,2
1679909290353,300,2
1679909290361,306,2
1679909290368,308,2
1679909290376,308,2
1679909290383,309,2
1679909290391,308,2
1679909290398,308,2
1679909290405,307,2
1679909290413,306,2
1679909290420,305,2
1679909290428,305,2
1679909290435,304,2
1679909290442,303,2
1679909290450,303,2
1679909290457,305,2
1679909290465,306,2
1679909290472,305,2
1679909290479,305,2
1679909290487,306,2
1679909290494,306,2
1679909290502,305,2
1679909290509,304,2
1679909290516,303,2
1679909290524,300,2
1679909290531,301,2
1679909290539,301,2
1679909290546,299,2
1679909290553,301,2
1679909290561,305,2
1679909290568,305,2
1679909290576,305,2
1679909290583,304,2
1679909290590,305,2
1679909290598,308,2
1679909290605,308,2
1679909290613,308,2
1679909290620,307,2
1679909290627,303,2
1679909290635,298,2
1679909290642,302,2
1679909290650,304,2
1679909290657,307,2
1679909290665,307,2
1679909290672,307,2
1679909290679,306,2
1679909290687,306,2
1679909290694,304,2
1679909290702,305,2
1679909290709,304,2
1679909290716,303,2
1679909290724,304,2
1679909290731,306,2
1679909290739,306,2
1679909290746,303,2
1679909290753,303,2
1679909290761,306,2
1679909290768,307,2
1679909290776,307,2
1679909290783,306,2
1679909290790,305,2
1679909290798,302,2
1679909290805,301,2
1679909290813,303,2
1679909290820,304,2
1679909290828,306,2
1679909290835,305,2
1679909290842,304,2
1679909290850,303,2
1679909290857,301,2
1679909290865,298,2
1679909290872,301,2
1679909290879,303,2
1679909290887,304,2
1679909290894,306,2
1679909290902,307,2
1679909290909,308,2
1679909290916,307,2
1679909290924,306,2
1679909290931,305,2
1679909290939,302,2
1679909290946,302,2
1679909290953,301,2
1679909290961,304,2
1679909290968,303,2
1679909290976,305,2
1679909290983,306,2
1679909290990,307,2
1679909290998,306,2
1679909291005,302,2
1679909291013,303,2
1679909291020,307,2
1679909291027,309,2
1679909291035,309,2
1679909291042,309,2
1679909291050,308,2
1679909291057,307,2
1679909291065,306,2
1679909291072,304,2
1679909291079,304,2
1679909291087,305,2
1679909291094,304,2
1679909291101,306,2
1679909291109,307,2
1679909291116,307,2
1679909291124,308,2
1679909291131,307,2
1679909291139,308,2
1679909291146,306,2
1679909291153,306,2
1679909291161,305,2
1679909291168,306,2
1679909291176,306,2
1679909291183,304,2
1679909291190,306,2
1679909291198,307,2
1679909291205,305,2
1679909291213,306,2
1679909291220,306,2
1679909291227,307,2
1679909291235,307,2
1679909291242,304,2
1679909291250,304,2
1679909291257,306,2
1679909291265,309,2
1679909291272,309,2
1679909291279,308,2
1679909291287,308,2
1679909291294,306,2
1679909291301,304,2
1679909291309,304,2
1679909291316,305,2
1679909291324,305,2
1679909291331,304,2
1679909291339,306,2
1679909291346,307,2
1679909291353,304,2
1679909291361,305,2
1679909291368,307,2
1679909291376,308,2
1679909291383,308,2
1679909291390,307,2
1679909291398,306,2
1679909291405,302,2
1679909291413,299,2
1679909291420,303,2
1679909291427,305,2
1679909291435,306,2
1679909291442,306,2
1679909291450,306,2
1679909291457,306,2
1679909291465,306,2
1679909291472,305,2
1679909291479,305,2
1679909291487,304,2
1679909291494,303,2
1679909291501,302,2
1679909291509,297,2
1679909291516,299,2
1679909291524,301,2
1679909291531,304,2
1679909291539,307,2
1679909291546,308,2
1679909291553,307,2
1679909291561,304,2
1679909291568,305,2
1679909291576,307,2
1679909291583,306,2
1679909291590,306,2
1679909291598,307,2
1679909291605,309,2
1679909291613,310,2
1679909291620,308,2
1679909291627,307,2
1679909291635,309,2
1679909291642,308,2
1679909291650,306,2
1679909291657,304,2
1679909291664,305,2
1679909291672,304,2
1679909291679,303,2
1679909291687,304,2
1679909291694,307,2
1679909291701,308,2
1679909291709,307,2
1679909291716,307,2
1679909291724,306,2
1679909291731,306,2
1679909291739,305,2
1679909291746,305,2
1679909291753,306,2
1679909291761,307,2
1679909291768,307,2
1679909291776,307,2
1679909291783,306,2
1679909291790,306,2
1679909291798,305,2
1679909291805,302,2
1679909291813,302,2
1679909291820,304,2
1679909291827,300,2
1679909291835,304,2
1679909291842,307,2
1679909291850,309,2
1679909291857,308,2
1679909291864,308,2
1679909291872,308,2
1679909291879,307,2
1679909291887,305,2
1679909291894,304,2
1679909291902,304,2
1679909291909,305,2
1679909291916,305,2
1679909291924,305,2
1679909291931,306,2
1679909291939,305,2
1679909291946,305,2
1679909291953,305,2
1679909291961,303,2
1679909291968,300,2
1679909291976,299,2
1679909291983,303,2
1679909291990,306,2
1679909291998,307,2
1679909292005,308,2
1679909292013,308,2
1679909292020,306,2
1679909292027,305,2
1679909292035,304,2
1679909292042,304,2
1679909292050,305,2
1679909292057,304,2
1679909292065,305,2
1679909292072,304,2
1679909292079,306,2
1679909292087,303,2
1679909292094,306,2
1679909292101,308,2
1679909292109,309,2
1679909292116,310,2
1679909292124,308,2
1679909292131,306,2
1679909292139,305,2
1679909292146,304,2
1679909292153,304,2
1679909292161,303,2
1679909292168,304,2
1679909292176,304,2
1679909292183,304,2
1679909292190,305,2
1679909292198,306,2
1679909292205,307,2
1679909292213,307,2
1679909292220,307,2
1679909292227,306,2
1679909292235,304,2
1679909292242,303,2
1679909292250,302,2
1679909292257,301,2
1679909292264,303,2
1679909292272,303,2
1679909292279,304,2
1679909292287,306,2
1679909292294,306,2
1679909292302,305,2
1679909292309,306,2
1679909292316,305,2
1679909292324,303,2
1679909292331,303,2
1679909292338,303,2
1679909292346,304,2
1679909292353,303,2
1679909292361,302,2
1679909292368,304,2
1679909292376,305,2
1679909292383,305,2
1679909292390,304,2
1679909292398,303,2
1679909292405,302,2
1679909292413,302,2
1679909292420,302,2
1679909292427,303,2
1679909292435,305,2
1679909292442,305,2
1679909292450,304,2
1679909292457,301,2
1679909292464,300,2
1679909292472,302,2
1679909292479,305,2
1679909292487,307,2
1679909292494,307,2
1679909292501,305,2
1679909292509,305,2
1679909292516,304,2
1679909292524,303,2
1679909292531,303,2
1679909292539,303,2
1679909292546,304,2
1679909292553,305,2
1679909292561,306,2
1679909292568,305,2
1679909292576,301,2
1679909292583,301,2
1679909292590,303,2
1679909292598,303,2
1679909292605,303,2
1679909292613,303,2
1679909292620,304,2
1679909292627,303,2
1679909292635,304,2
1679909292642,304,2
1679909292650,304,2
1679909292657,303,2
1679909292664,303,2
1679909292672,302,2
1679909292679,301,2
1679909292687,302,2
1679909292694,301,2
1679909292701,302,2
1679909292709,306,2
1679909292716,306,2
1679909292724,306,2
1679909292731,306,2
1679909292738,306,2
1679909292746,305,2
1679909292753,303,2
1679909292761,303,2
1679909292768,303,2
1679909292776,303,2
1679909292783,306,2
1679909292790,306,2
1679909292798,306,2
1679909292805,305,2
1679909292813,306,2
1679909292820,305,2
1679909292827,304,2
1679909292835,304,2
1679909292842,306,2
1679909292849,307,2
1679909292857,307,2
1679909292864,308,2
1679909292872,307,2
1679909292879,305,2
1679909292887,304,2
1679909292894,303,2
1679909292901,303,2
1679909292909,304,2
1679909292916,305,2
1679909292924,307,2
1679909292931,307,2
1679909292938,307,2
1679909292946,307,2
1679909292953,305,2
1679909292961,304,2
1679909292968,306,2
1679909292975,305,2
1679909292983,303,2
1679909292990,301,2
1679909292998,305,2
1679909293005,306,2
1679909293013,306,2
1679909293020,306,2
1679909293027,306,2
1679909293035,305,2
1679909293042,304,2
1679909293050,304,2
1679909293057,301,2
1679909293064,302,2
1679909293072,303,2
1679909293079,303,2
1679909293087,305,2
1679909293094,306,2
1679909293101,307,2
1679909293109,307,2
1679909293116,306,2
1679909293124,305,2
1679909293131,303,2
1679909293138,303,2
1679909293146,301,2
1679909293153,302,2
1679909293161,305,2
1679909293168,307,2
1679909293175,307,2
1679909293183,308,2
1679909293190,304,2
1679909293198,303,2
1679909293205,306,2
1679909293213,307,2
1679909293220,308,2
1679909293227,308,2
1679909293235,305,2
1679909293242,305,2
1679909293250,306,2
1679909293257,306,2
1679909293264,307,2
1679909293272,307,2
1679909293279,307,2
1679909293287,307,2
1679909293294,307,2
1679909293301,306,2
1679909293309,306,2
1679909293316,306,2
1679909293324,307,2
1679909293331,306,2
1679909293338,305,2
1679909293346,304,2
1679909293353,303,2
1679909293361,299,2
1679909293368,303,2
1679909293375,304,2
1679909293383,303,2
1679909293390,305,2
1679909293398,307,2
1679909293405,307,2
1679909293412,307,2
1679909293420,306,2
1679909293427,306,2
1679909293435,304,2
1679909293442,301,2
1679909293449,301,2
1679909293457,298,2
1679909293464,299,2
1679909293472,303,2
1679909293479,307,2
1679909293487,308,2
1679909293494,307,2
1679909293501,308,2
1679909293509,307,2
1679909293516,306,2
1679909293524,306,2
1679909293531,305,2
1679909293538,306,2
1679909293546,305,2
1679909293553,304,2
1679909293561,303,2
1679909293568,303,2
1679909293575,303,2
1679909293583,303,2
1679909293590,301,2
1679909293598,303,2
1679909293605,304,2
1679909293612,301,2
1679909293620,301,2
1679909293627,303,2
1679909293635,305,2
1679909293642,305,2
1679909293649,304,2
1679909293657,302,2
1679909293664,305,2
1679909293672,307,2
1679909293679,306,2
1679909293686,306,2
1679909293694,306,2
1679909293701,306,2
1679909293709,306,2
1679909293716,306,2
1679909293724,307,2
1679909293731,306,2
1679909293738,305,2
1679909293746,303,2
1679909293753,304,2
1679909293761,304,2
1679909293768,304,2
1679909293775,302,2
1679909293783,303,2
1679909293790,303,2
1679909293798,303,2
1679909293805,304,2
1679909293812,304,2
1679909293820,304,2
1679909293827,306,2
1679909293835,305,2
1679909293842,302,2
1679909293849,302,2
1679909293857,305,2
1679909293864,306,2
1679909293872,306,2
1679909293879,305,2
1679909293886,308,2
1679909293894,309,2
1679909293901,309,2
1679909293909,308,2
1679909293916,308,2
1679909293924,306,2
1679909293931,305,2
1679909293938,305,2
1679909293946,304,2
1679909293953,304,2
1679909293961,304,2
1679909293968,304,2
1679909293975,303,2
1679909293983,303,2
1679909293990,304,2
1679909293998,305,2
1679909294005,303,2
1679909294012,301,2
1679909294020,301,2
1679909294027,301,2
1679909294035,304,2
1679909294042,304,2
1679909294049,306,2
1679909294057,306,2
1679909294064,304,2
1679909294072,306,2
1679909294079,306,2
1679909294087,307,2
1679909294094,309,2
1679909294101,309,2
1679909294109,306,2
1679909294116,305,2
1679909294124,305,2
1679909294131,305,2
1679909294138,306,2
1679909294146,307,2
1679909294153,306,2
1679909294161,304,2
1679909294168,304,2
1679909294175,305,2
1679909294183,303,2
1679909294190,305,2
1679909294198,307,2
1679909294205,306,2
1679909294212,303,2
1679909294220,303,2
1679909294227,305,2
1679909294235,306,2
1679909294242,306,2
1679909294249,306,2
1679909294257,304,2
1679909294264,305,2
1679909294272,305,2
1679909294279,304,2
1679909294286,304,2
1679909294294,302,2
1679909294301,301,2
1679909294309,302,2
1679909294316,302,2
1679909294324,302,2
1679909294331,304,2
1679909294338,304,2
1679909294346,305,2
1679909294353,303,2
1679909294361,304,2
1679909294368,304,2
1679909294375,306,2
1679909294383,307,2
1679909294390,306,2
1679909294398,305,2
1679909294405,305,2
1679909294412,305,2
1679909294420,305,2
1679909294427,303,2
1679909294435,303,2
1679909294442,305,2
1679909294449,307,2
1679909294457,306,2
1679909294464,307,2
1679909294472,308,2
1679909294479,308,2
1679909294486,307,2
1679909294494,306,2
1679909294501,304,2
1679909294509,305,2
1679909294516,305,2
1679909294524,306,2
1679909294531,302,2
1679909294538,303,2
1679909294546,304,2
1679909294553,306,2
1679909294561,306,2
1679909294568,306,2
1679909294575,306,2
1679909294583,305,2
1679909294590,306,2
1679909294598,304,2
1679909294605,304,2
1679909294612,302,2
1679909294620,302,2
1679909294627,305,2
1679909294635,307,2
1679909294642,307,2
1679909294650,305,2
1679909294657,303,2
1679909294664,306,2
1679909294672,308,2
1679909294679,308,2
1679909294686,304,2
1679909294694,304,2
1679909294701,305,2
1679909294709,307,2
1679909294716,307,2
1679909294724,307,2
1679909294731,307,2
1679909294738,306,2
1679909294746,305,2
1679909294753,303,2
1679909294761,301,2
1679909294768,301,2
1679909294775,302,2
1679909294783,306,2
1679909294790,307,2
1679909294798,308,2
1679909294805,308,2
1679909294812,308,2
1679909294820,306,2
1679909294827,304,2
1679909294835,299,2
1679909294842,298,2
1679909294849,300,2
1679909294857,304,2
1679909294864,308,2
1679909294872,309,2
1679909294879,308,2
1679909294886,308,2
1679909294894,307,2
1679909294901,306,2
1679909294909,305,2
1679909294916,302,2
1679909294924,302,2
1679909294931,303,2
1679909294938,303,2
1679909294946,306,2
1679909294953,306,2
1679909294961,307,2
1679909294968,306,2
1679909294975,305,2
1679909294983,303,2
1679909294990,303,2
1679909294998,302,2
1679909295005,306,2
1679909295012,306,2
1679909295020,306,2
1679909295027,307,2
1679909295035,307,2
1679909295042,307,2
1679909295049,305,2
1679909295057,302,2
1679909295064,300,2
1679909295072,301,2
1679909295079,303,2
1679909295086,300,2
1679909295094,302,2
1679909295101,306,2
1679909295109,308,2
1679909295116,309,2
1679909295123,309,2
1679909295131,308,2
1679909295138,307,2
1679909295146,307,2
1679909295153,306,2
1679909295161,303,2
1679909295168,303,2
1679909295175,303,2
1679909295183,306,2
1679909295190,306,2
1679909295198,305,2
1679909295205,306,2
1679909295212,306,2
1679909295220,306,2
1679909295227,305,2
1679909295235,303,2
1679909295242,304,2
1679909295249,305,2
1679909295257,304,2
1679909295264,303,2
1679909295272,304,2
1679909295279,304,2
1679909295286,303,2
1679909295294,302,2
1679909295301,304,2
1679909295309,306,2
1679909295316,306,2
1679909295323,307,2
1679909295331,308,2
1679909295338,306,2
1679909295346,307,2
1679909295353,307,2
1679909295361,306,2
1679909295368,306,2
1679909295375,306,2
1679909295383,306,2
1679909295390,307,2
1679909295398,307,2
1679909295405,306,2
1679909295412,304,2
1679909295420,303,2
1679909295427,305,2
1679909295435,304,2
1679909295442,304,2
1679909295449,305,2
1679909295457,303,2
1679909295464,304,2
1679909295472,304,2
1679909295479,303,2
1679909295486,305,2
1679909295494,306,2
1679909295501,301,2
1679909295509,301,2
1679909295516,305,2
1679909295523,305,2
1679909295531,306,2
1679909295538,305,2
1679909295546,306,2
1679909295553,307,2
1679909295561,304,2
1679909295568,305,2
1679909295575,306,2
1679909295583,306,2
1679909295590,305,2
1679909295598,306,2
1679909295605,307,2
1679909295612,308,2
1679909295620,308,2
1679909295627,307,2
1679909295635,305,2
1679909295642,301,2
1679909295649,301,2
1679909295657,300,2
1679909295664,304,2
1679909295672,307,2
1679909295679,307,2
1679909295686,307,2
1679909295694,308,2
1679909295701,308,2
1679909295709,308,2
1679909295716,305,2
1679909295724,304,2
1679909295731,303,2
1679909295738,304,2
1679909295746,305,2
1679909295753,303,2
1679909295761,307,2
1679909295768,308,2
1679909295775,307,2
1679909295783,306,2
1679909295790,304,2
1679909295798,301,2
1679909295805,304,2
1679909295812,306,2
1679909295820,306,2
1679909295827,305,2
1679909295835,306,2
1679909295842,307,2
1679909295849,308,2
1679909295857,306,2
1679909295864,300,2
1679909295872,300,2
1679909295879,301,2
1679909295886,304,2
1679909295894,307,2
1679909295901,306,2
1679909295909,307,2
1679909295916,307,2
1679909295924,305,2
1679909295931,301,2
1679909295938,300,2
1679909295946,298,2
1679909295953,302,2
1679909295961,305,2
1679909295968,304,2
1679909295975,308,2
1679909295983,306,2
1679909295990,308,2
1679909295998,308,2
1679909296005,306,2
1679909296012,304,2
1679909296020,301,2
1679909296027,299,2
1679909296035,303,2
1679909296042,306,2
1679909296049,305,2
1679909296057,305,2
1679909296064,301,2
1679909296072,302,2
1679909296079,300,2
1679909296086,300,2
1679909296094,303,2
1679909296101,305,2
1679909296109,304,2
1679909296116,303,2
1679909296124,304,2
1679909296131,302,2
1679909296138,299,2
1679909296146,301,2
1679909296153,303,2
1679909296161,302,2
1679909296168,302,2
1679909296175,298,2
1679909296183,298,2
1679909296190,302,2
1679909296198,303,2
1679909296205,304,2
1679909296212,304,2
1679909296220,305,2
1679909296227,304,2
1679909296235,303,2
1679909296242,300,2
1679909296249,298,2
1679909296257,298,2
1679909296264,296,2
1679909296272,294,2
1679909296279,297,2
1679909296286,299,2
1679909296294,300,2
1679909296301,300,2
1679909296309,301,2
1679909296316,302,2
1679909296324,303,2
1679909296331,302,2
1679909296338,304,2
1679909296346,303,2
1679909296353,302,2
1679909296361,302,2
1679909296368,304,2
1679909296375,303,2
1679909296383,306,2
1679909296390,304,2
1679909296398,304,2
1679909296405,302,2
1679909296412,304,2
1679909296420,302,2
1679909296427,305,2
1679909296435,308,2
1679909296442,309,2
1679909296449,308,2
1679909296457,306,2
1679909296464,304,2
1679909296472,298,2
1679909296479,303,2
1679909296486,306,2
1679909296494,305,2
1679909296501,307,2
1679909296509,307,2
1679909296516,308,2
1679909296523,308,2
1679909296531,305,2
1679909296538,305,2
1679909296546,307,2
1679909296553,307,2
1679909296560,307,2
1679909296568,306,2
1679909296575,304,2
1679909296583,301,2
1679909296590,299,2
1679909296597,299,2
1679909296605,307,2
1679909296612,309,2
1679909296620,310,2
1679909296627,311,2
1679909296635,310,2
1679909296642,310,2
1679909296649,307,2
1679909296657,303,2
1679909296664,301,2
1679909296672,300,2
1679909296679,302,2
1679909296686,307,2
1679909296694,310,2
1679909296701,310,2
1679909296709,308,2
1679909296716,307,2
1679909296723,308,2
1679909296731,309,2
1679909296738,308,2
1679909296746,306,2
1679909296753,305,2
1679909296760,304,2
1679909296768,306,2
1679909296775,304,2
1679909296783,298,2
1679909296790,302,2
1679909296798,307,2
1679909296805,310,2
1679909296812,306,2
1679909296820,305,2
1679909296827,307,2
1679909296835,308,2
1679909296842,308,2
1679909296849,307,2
1679909296857,304,2
1679909296864,306,2
1679909296872,306,2
1679909296879,306,2
1679909296886,307,2
1679909296894,305,2
1679909296901,304,2
1679909296909,301,2
1679909296916,301,2
1679909296924,302,2
1679909296931,305,2
1679909296938,307,2
1679909296946,306,2
1679909296953,307,2
1679909296960,309,2
1679909296968,310,2
1679909296975,308,2
1679909296983,305,2
1679909296990,302,2
1679909296998,299,2
1679909297005,301,2
1679909297012,304,2
1679909297020,306,2
1679909297027,308,2
1679909297035,308,2
1679909297042,307,2
1679909297049,307,2
1679909297057,305,2
1679909297064,305,2
1679909297072,306,2
1679909297079,304,2
1679909297087,302,2
1679909297094,304,2
1679909297101,304,2
1679909297109,306,2
1679909297116,308,2
1679909297123,310,2
1679909297131,311,2
1679909297138,310,2
1679909297146,305,2
1679909297153,300,2
1679909297160,300,2
1679909297168,302,2
1679909297175,302,2
1679909297183,307,2
1679909297190,309,2
1679909297198,308,2
1679909297205,309,2
1679909297212,310,2
1679909297220,308,2
1679909297227,305,2
1679909297234,306,2
1679909297242,306,2
1679909297249,303,2
1679909297257,296,2
1679909297264,299,2
1679909297272,304,2
1679909297279,306,2
1679909297286,308,2
1679909297294,310,2
1679909297301,310,2
1679909297309,309,2
1679909297316,303,2
1679909297323,301,2
1679909297331,304,2
1679909297338,303,2
1679909297346,305,2
1679909297353,305,2
1679909297360,306,2
1679909297368,307,2
1679909297375,306,2
1679909297383,306,2
1679909297390,308,2
1679909297398,307,2
1679909297405,307,2
1679909297412,304,2
1679909297420,303,2
1679909297427,308,2
1679909297435,306,2
1679909297442,303,2
1679909297449,304,2
1679909297457,307,2
1679909297464,307,2
1679909297472,306,2
1679909297479,307,2
1679909297486,308,2
1679909297494,307,2
1679909297501,305,2
1679909297509,304,2
1679909297516,304,2
1679909297523,301,2
1679909297531,304,2
1679909297538,305,2
1679909297546,302,2
1679909297553,303,2
1679909297561,306,2
1679909297568,307,2
1679909297575,306,2
1679909297583,305,2
1679909297590,304,2
1679909297598,306,2
1679909297605,305,2
1679909297612,299,2
1679909297620,302,2
1679909297627,305,2
1679909297635,304,2
1679909297642,301,2
1679909297649,304,2
1679909297657,306,2
1679909297664,307,2
1679909297672,302,2
1679909297679,303,2
1679909297686,304,2
1679909297694,304,2
1679909297701,302,2
1679909297709,302,2
1679909297716,301,2
1679909297723,302,2
1679909297731,299,2
1679909297738,302,2
1679909297746,304,2
1679909297753,307,2
1679909297760,307,2
1679909297768,307,2
1679909297775,309,2
1679909297783,308,2
1679909297790,305,2
1679909297797,306,2
1679909297805,302,2
1679909297812,299,2
1679909297820,301,2
1679909297827,303,2
1679909297835,305,2
1679909297842,309,2
1679909297849,308,2
1679909297857,308,2
1679909297864,308,2
1679909297872,306,2
1679909297879,306,2
1679909297886,302,2
1679909297894,297,2
1679909297901,298,2
1679909297909,300,2
1679909297916,300,2
1679909297923,305,2
1679909297931,310,2
1679909297938,311,2
1679909297946,310,2
1679909297953,309,2
1679909297960,306,2
1679909297968,302,2
1679909297975,297,2
1679909297983,299,2
1679909297990,303,2
1679909297997,306,2
1679909298005,308,2
1679909298012,309,2
1679909298020,306,2
1679909298027,307,2
1679909298035,304,2
1679909298042,298,2
1679909298049,302,2
1679909298057,304,2
1679909298064,303,2
1679909298072,304,2
1679909298079,300,2
1679909298086,304,2
1679909298094,298,2
1679909298101,303,2
1679909298109,307,2
1679909298116,307,2
1679909298123,306,2
1679909298131,302,2
1679909298138,300,2
1679909298146,302,2
1679909298153,298,2
1679909298160,299,2
1679909298168,302,2
1679909298175,302,2
1679909298183,302,2
1679909298190,299,2
1679909298198,302,2
1679909298205,302,2
1679909298212,304,2
1679909298220,304,2
1679909298227,300,2
1679909298234,299,2
1679909298242,298,2
1679909298249,301,2
1679909298257,301,2
1679909298264,304,2
1679909298272,305,2
1679909298279,306,2
1679909298286,303,2
1679909298294,300,2
1679909298301,299,2
1679909298309,301,2
1679909298316,304,2
1679909298323,305,2
1679909298331,306,2
1679909298338,307,2
1679909298346,307,2
1679909298353,307,2
1679909298360,305,2
1679909298368,302,2
1679909298375,298,2
1679909298383,302,2
1679909298390,303,2
1679909298398,305,2
1679909298405,305,2
1679909298412,307,2
1679909298420,307,2
1679909298427,306,2
1679909298435,303,2
1679909298442,304,2
1679909298449,301,2
1679909298457,301,2
1679909298464,306,2
1679909298472,306,2
1679909298479,305,2
1679909298486,306,2
1679909298494,306,2
1679909298501,303,2
1679909298509,304,2
1679909298516,306,2
1679909298523,306,2
1679909298531,304,2
1679909298538,303,2
1679909298546,302,2
1679909298553,304,2
1679909298560,306,2
1679909298568,307,2
1679909298575,308,2
1679909298583,306,2
1679909298590,306,2
1679909298598,306,2
1679909298605,305,2
1679909298612,302,2
1679909298620,305,2
1679909298627,305,2
1679909298635,308,2
1679909298642,307,2
1679909298649,305,2
1679909298657,307,2
1679909298664,307,2
1679909298672,306,2
1679909298679,304,2
1679909298686,305,2
1679909298694,306,2
1679909298701,305,2
1679909298709,304,2
1679909298716,305,2
1679909298723,305,2
1679909298731,304,2
1679909298738,306,2
1679909298746,308,2
1679909298753,309,2
1679909298760,309,2
1679909298768,307,2
1679909298775,305,2
1679909298783,306,2
1679909298790,306,2
1679909298798,308,2
1679909298805,306,2
1679909298812,305,2
1679909298820,306,2
1679909298827,307,2
1679909298835,304,2
1679909298842,304,2
