1679211953895,298,2
1679211953902,297,2
1679211953909,295,2
1679211953917,298,2
1679211953924,303,2
1679211953932,304,2
1679211953939,297,2
1679211953946,296,2
1679211953954,297,2
1679211953961,302,2
1679211953969,298,2
1679211953976,295,2
1679211953983,297,2
1679211953991,302,2
1679211953998,302,2
1679211954006,300,2
1679211954013,299,2
1679211954020,300,2
1679211954028,292,2
1679211954035,293,2
1679211954043,294,2
1679211954050,295,2
1679211954058,299,2
1679211954065,302,2
1679211954072,300,2
1679211954080,296,2
1679211954087,299,2
1679211954095,303,2
1679211954102,304,2
1679211954109,302,2
1679211954117,299,2
1679211954124,298,2
1679211954132,299,2
1679211954139,296,2
1679211954146,293,2
1679211954154,294,2
1679211954161,299,2
1679211954169,303,2
1679211954176,305,2
1679211954184,305,2
1679211954191,303,2
1679211954198,296,2
1679211954206,290,2
1679211954213,297,2
1679211954221,298,2
1679211954228,299,2
1679211954235,298,2
1679211954243,296,2
1679211954250,303,2
1679211954258,306,2
1679211954265,304,2
1679211954272,302,2
1679211954280,301,2
1679211954287,297,2
1679211954295,296,2
1679211954302,288,2
1679211954309,293,2
1679211954317,297,2
1679211954324,298,2
1679211954332,304,2
1679211954339,307,2
1679211954346,308,2
1679211954354,306,2
1679211954361,304,2
1679211954369,303,2
1679211954376,299,2
1679211954383,287,2
1679211954391,287,2
1679211954398,288,2
1679211954406,297,2
1679211954413,301,2
1679211954420,305,2
1679211954428,308,2
1679211954435,307,2
1679211954442,306,2
1679211954450,302,2
1679211954457,288,2
1679211954465,290,2
1679211954472,292,2
1679211954479,296,2
1679211954487,301,2
1679211954494,300,2
1679211954502,304,2
1679211954509,304,2
1679211954516,303,2
1679211954524,302,2
1679211954531,301,2
1679211954539,294,2
1679211954545,282,2
1679211954552,283,2
1679211954559,292,2
1679211954567,296,2
1679211954574,302,2
1679211954582,303,2
1679211954589,302,2
1679211954596,299,2
1679211954604,298,2
1679211954611,292,2
1679211954619,287,2
1679211954626,297,2
1679211954633,300,2
1679211954641,298,2
1679211954648,296,2
1679211954656,299,2
1679211954663,299,2
1679211954670,299,2
1679211954678,298,2
1679211954685,298,2
1679211954693,292,2
1679211954700,292,2
1679211954708,296,2
1679211954715,297,2
1679211954722,295,2
1679211954730,294,2
1679211954737,297,2
1679211954745,299,2
1679211954752,299,2
1679211954759,297,2
1679211954767,298,2
1679211954774,298,2
1679211954782,295,2
1679211954789,294,2
1679211954796,292,2
1679211954804,290,2
1679211954811,293,2
1679211954819,296,2
1679211954826,299,2
1679211954833,301,2
1679211954841,300,2
1679211954848,300,2
1679211954856,294,2
1679211954863,289,2
1679211954870,292,2
1679211954878,292,2
1679211954885,296,2
1679211954893,298,2
1679211954900,297,2
1679211954908,299,2
1679211954915,299,2
1679211954922,293,2
1679211954930,294,2
1679211954937,295,2
1679211954945,292,2
1679211954952,293,2
1679211954959,294,2
1679211954967,297,2
1679211954974,291,2
1679211954982,298,2
1679211954989,300,2
1679211954996,298,2
1679211955004,300,2
1679211955011,300,2
1679211955019,297,2
1679211955026,294,2
1679211955033,293,2
1679211955041,292,2
1679211955048,294,2
1679211955056,294,2
1679211955063,296,2
1679211955071,298,2
1679211955078,300,2
1679211955085,301,2
1679211955093,300,2
1679211955100,300,2
1679211955108,294,2
1679211955115,296,2
1679211955122,295,2
1679211955130,286,2
1679211955137,290,2
1679211955145,293,2
1679211955152,296,2
1679211955159,300,2
1679211955167,303,2
1679211955174,304,2
1679211955182,303,2
1679211955189,302,2
1679211955197,299,2
1679211955204,298,2
1679211955211,294,2
1679211955219,289,2
1679211955226,283,2
1679211955234,292,2
1679211955241,299,2
1679211955248,300,2
1679211955256,301,2
1679211955263,303,2
1679211955271,302,2
1679211955278,299,2
1679211955285,294,2
1679211955293,291,2
1679211955300,295,2
1679211955308,291,2
1679211955315,293,2
1679211955322,299,2
1679211955330,300,2
1679211955337,298,2
1679211955345,298,2
1679211955352,299,2
1679211955360,296,2
1679211955367,292,2
1679211955374,294,2
1679211955382,297,2
1679211955389,299,2
1679211955396,298,2
1679211955404,300,2
1679211955411,300,2
1679211955419,298,2
1679211955426,293,2
1679211955434,293,2
1679211955441,291,2
1679211955448,290,2
1679211955456,297,2
1679211955463,299,2
1679211955471,298,2
1679211955478,302,2
1679211955485,304,2
1679211955493,300,2
1679211955500,299,2
1679211955508,297,2
1679211955515,293,2
1679211955522,295,2
1679211955530,295,2
1679211955537,299,2
1679211955545,298,2
1679211955552,300,2
1679211955560,300,2
1679211955567,298,2
1679211955574,298,2
1679211955582,296,2
1679211955589,288,2
1679211955597,285,2
1679211955604,290,2
1679211955611,296,2
1679211955619,294,2
1679211955626,295,2
1679211955634,303,2
1679211955641,303,2
1679211955648,298,2
1679211955656,298,2
1679211955663,299,2
1679211955671,303,2
1679211955678,302,2
1679211955685,297,2
1679211955693,301,2
1679211955700,300,2
1679211955708,292,2
1679211955715,289,2
1679211955722,297,2
1679211955730,299,2
1679211955737,294,2
1679211955745,296,2
1679211955752,296,2
1679211955760,300,2
1679211955767,296,2
1679211955774,297,2
1679211955782,301,2
1679211955789,301,2
1679211955797,299,2
1679211955804,296,2
1679211955811,296,2
1679211955819,291,2
1679211955826,287,2
1679211955834,293,2
1679211955841,297,2
1679211955849,302,2
1679211955856,304,2
1679211955863,304,2
1679211955871,302,2
1679211955878,300,2
1679211955886,295,2
1679211955893,291,2
1679211955900,287,2
1679211955908,290,2
1679211955915,296,2
1679211955923,299,2
1679211955930,300,2
1679211955937,299,2
1679211955945,295,2
1679211955952,299,2
1679211955960,301,2
1679211955967,298,2
1679211955974,297,2
1679211955982,291,2
1679211955989,289,2
1679211955997,289,2
1679211956004,289,2
1679211956012,294,2
1679211956019,298,2
1679211956026,297,2
1679211956034,299,2
1679211956041,303,2
1679211956049,304,2
1679211956056,303,2
1679211956063,301,2
1679211956071,298,2
1679211956078,292,2
1679211956086,292,2
1679211956093,293,2
1679211956100,294,2
1679211956108,297,2
1679211956115,296,2
1679211956123,298,2
1679211956130,297,2
1679211956137,294,2
1679211956145,294,2
1679211956152,299,2
1679211956160,294,2
1679211956167,298,2
1679211956174,299,2
1679211956182,297,2
1679211956189,297,2
1679211956197,299,2
1679211956204,293,2
1679211956212,298,2
1679211956219,299,2
1679211956226,295,2
1679211956234,298,2
1679211956241,298,2
1679211956249,294,2
1679211956256,293,2
1679211956263,295,2
1679211956271,295,2
1679211956278,296,2
1679211956286,300,2
1679211956293,301,2
1679211956300,301,2
1679211956308,302,2
1679211956315,301,2
1679211956323,294,2
1679211956330,286,2
1679211956337,292,2
1679211956345,291,2
1679211956352,287,2
1679211956360,295,2
1679211956367,300,2
1679211956374,303,2
1679211956382,303,2
1679211956389,303,2
1679211956397,301,2
1679211956404,297,2
1679211956412,290,2
1679211956419,289,2
1679211956426,292,2
1679211956434,291,2
1679211956441,299,2
1679211956449,301,2
1679211956456,303,2
1679211956463,303,2
1679211956471,303,2
1679211956478,300,2
1679211956486,292,2
1679211956493,292,2
1679211956500,292,2
1679211956508,292,2
1679211956515,294,2
1679211956523,296,2
1679211956530,300,2
1679211956538,300,2
1679211956545,293,2
1679211956552,297,2
1679211956560,300,2
1679211956567,298,2
1679211956575,299,2
1679211956582,298,2
1679211956589,296,2
1679211956597,294,2
1679211956604,297,2
1679211956612,297,2
1679211956619,293,2
1679211956627,297,2
1679211956634,300,2
1679211956641,299,2
1679211956649,295,2
1679211956656,296,2
1679211956663,297,2
1679211956671,297,2
1679211956678,295,2
1679211956686,296,2
1679211956693,294,2
1679211956701,297,2
1679211956708,298,2
1679211956715,295,2
1679211956723,298,2
1679211956730,297,2
1679211956738,295,2
1679211956745,294,2
1679211956752,296,2
1679211956760,300,2
1679211956767,300,2
1679211956775,296,2
1679211956782,296,2
1679211956789,297,2
1679211956797,296,2
1679211956804,293,2
1679211956812,294,2
1679211956819,295,2
1679211956827,298,2
1679211956834,300,2
1679211956841,300,2
1679211956849,300,2
1679211956856,296,2
1679211956864,295,2
1679211956871,295,2
1679211956878,294,2
1679211956886,292,2
1679211956893,292,2
1679211956901,299,2
1679211956908,301,2
1679211956915,302,2
1679211956923,300,2
1679211956930,300,2
1679211956938,298,2
1679211956945,297,2
1679211956952,296,2
1679211956960,292,2
1679211956967,295,2
1679211956975,296,2
1679211956982,295,2
1679211956989,296,2
1679211956997,295,2
1679211957004,296,2
1679211957012,296,2
1679211957019,295,2
1679211957027,295,2
1679211957034,295,2
1679211957041,294,2
1679211957049,298,2
1679211957056,299,2
1679211957064,300,2
1679211957071,301,2
1679211957078,301,2
1679211957086,300,2
1679211957093,295,2
1679211957101,295,2
1679211957108,297,2
1679211957115,292,2
1679211957123,295,2
1679211957130,297,2
1679211957138,300,2
1679211957145,302,2
1679211957152,302,2
1679211957160,300,2
1679211957167,299,2
1679211957175,299,2
1679211957182,298,2
1679211957189,294,2
1679211957197,290,2
1679211957204,288,2
1679211957212,290,2
1679211957219,295,2
1679211957226,299,2
1679211957234,301,2
1679211957241,303,2
1679211957249,303,2
1679211957256,302,2
1679211957264,297,2
1679211957271,293,2
1679211957278,291,2
1679211957286,293,2
1679211957293,297,2
1679211957301,297,2
1679211957308,299,2
1679211957315,300,2
1679211957323,300,2
1679211957330,301,2
1679211957338,300,2
1679211957345,299,2
1679211957352,294,2
1679211957360,294,2
1679211957367,291,2
1679211957375,294,2
1679211957382,296,2
1679211957389,297,2
1679211957397,296,2
1679211957404,297,2
1679211957412,298,2
1679211957419,298,2
1679211957427,297,2
1679211957434,294,2
1679211957441,296,2
1679211957449,294,2
1679211957456,294,2
1679211957464,294,2
1679211957471,298,2
1679211957479,302,2
1679211957486,303,2
1679211957493,301,2
1679211957501,300,2
1679211957508,300,2
1679211957516,298,2
1679211957523,294,2
1679211957530,292,2
1679211957538,297,2
1679211957545,301,2
1679211957553,302,2
1679211957560,302,2
1679211957567,303,2
1679211957575,302,2
1679211957582,301,2
1679211957590,301,2
1679211957597,299,2
1679211957604,295,2
1679211957612,296,2
1679211957619,300,2
1679211957627,299,2
1679211957634,301,2
1679211957641,303,2
1679211957649,305,2
1679211957656,305,2
1679211957664,304,2
1679211957671,302,2
1679211957679,297,2
1679211957686,300,2
1679211957693,299,2
1679211957701,301,2
1679211957708,296,2
1679211957716,296,2
1679211957723,301,2
1679211957730,305,2
1679211957738,306,2
1679211957745,306,2
1679211957753,304,2
1679211957760,303,2
1679211957767,299,2
1679211957775,298,2
1679211957782,296,2
1679211957790,296,2
1679211957797,294,2
1679211957804,296,2
1679211957812,300,2
1679211957819,302,2
1679211957827,301,2
1679211957834,300,2
1679211957841,300,2
1679211957849,297,2
1679211957856,295,2
1679211957864,296,2
1679211957871,296,2
1679211957879,287,2
1679211957886,290,2
1679211957893,296,2
1679211957901,297,2
1679211957908,299,2
1679211957916,300,2
1679211957923,299,2
1679211957930,294,2
1679211957938,294,2
1679211957945,298,2
1679211957953,298,2
1679211957960,299,2
1679211957967,300,2
1679211957975,296,2
1679211957982,298,2
1679211957990,299,2
1679211957997,296,2
1679211958004,292,2
1679211958012,294,2
1679211958019,295,2
1679211958027,299,2
1679211958034,300,2
1679211958041,299,2
1679211958049,300,2
1679211958056,299,2
1679211958064,298,2
1679211958071,299,2
1679211958078,295,2
1679211958086,294,2
1679211958093,298,2
1679211958101,298,2
1679211958108,299,2
1679211958116,301,2
1679211958123,300,2
1679211958130,299,2
1679211958138,300,2
1679211958145,299,2
1679211958153,301,2
1679211958160,301,2
1679211958167,299,2
1679211958175,298,2
1679211958182,297,2
1679211958190,300,2
1679211958197,301,2
1679211958204,297,2
1679211958212,298,2
1679211958219,301,2
1679211958227,302,2
1679211958234,301,2
1679211958242,304,2
1679211958249,304,2
1679211958256,302,2
1679211958264,299,2
1679211958271,299,2
1679211958279,301,2
1679211958286,298,2
1679211958293,297,2
1679211958301,303,2
1679211958308,304,2
1679211958316,303,2
1679211958323,301,2
1679211958331,304,2
1679211958338,305,2
1679211958345,300,2
1679211958353,299,2
1679211958360,301,2
1679211958368,300,2
1679211958375,304,2
1679211958382,308,2
1679211958390,307,2
1679211958397,308,2
1679211958405,307,2
1679211958412,306,2
1679211958419,300,2
1679211958427,294,2
1679211958434,298,2
1679211958442,301,2
1679211958449,305,2
1679211958456,308,2
1679211958464,311,2
1679211958471,313,2
1679211958479,312,2
1679211958486,311,2
1679211958494,310,2
1679211958501,304,2
1679211958508,303,2
1679211958516,298,2
1679211958523,302,2
1679211958530,304,2
1679211958538,309,2
1679211958545,311,2
1679211958553,312,2
1679211958560,312,2
1679211958567,311,2
1679211958575,311,2
1679211958582,309,2
1679211958590,310,2
1679211958597,305,2
1679211958605,305,2
1679211958612,308,2
1679211958619,308,2
1679211958627,307,2
1679211958634,310,2
1679211958642,312,2
1679211958649,313,2
1679211958656,313,2
1679211958664,312,2
1679211958671,312,2
1679211958679,304,2
1679211958686,307,2
1679211958694,309,2
1679211958701,310,2
1679211958708,312,2
1679211958716,314,2
1679211958723,315,2
1679211958731,315,2
1679211958738,313,2
1679211958745,313,2
1679211958753,308,2
1679211958760,300,2
1679211958768,305,2
1679211958775,309,2
1679211958782,312,2
1679211958790,313,2
1679211958797,314,2
1679211958805,316,2
1679211958812,316,2
1679211958819,314,2
1679211958827,311,2
1679211958834,308,2
1679211958842,306,2
1679211958849,309,2
1679211958857,307,2
1679211958864,311,2
1679211958871,313,2
1679211958879,313,2
1679211958886,314,2
1679211958894,312,2
1679211958901,312,2
1679211958908,312,2
1679211958916,310,2
1679211958923,310,2
1679211958931,314,2
1679211958938,311,2
1679211958945,306,2
1679211958953,304,2
1679211958960,308,2
1679211958968,310,2
1679211958975,311,2
1679211958982,313,2
1679211958990,314,2
1679211958997,314,2
1679211959005,314,2
1679211959012,312,2
1679211959019,312,2
1679211959027,308,2
1679211959034,300,2
1679211959042,299,2
1679211959049,304,2
1679211959057,304,2
1679211959064,308,2
1679211959071,310,2
1679211959079,306,2
1679211959086,305,2
1679211959094,308,2
1679211959101,310,2
1679211959108,311,2
1679211959116,311,2
1679211959123,309,2
1679211959131,309,2
1679211959138,308,2
1679211959145,305,2
1679211959153,301,2
1679211959160,306,2
1679211959168,308,2
1679211959175,304,2
1679211959182,303,2
1679211959190,305,2
1679211959197,307,2
1679211959205,307,2
1679211959212,307,2
1679211959220,308,2
1679211959227,308,2
1679211959234,304,2
1679211959242,303,2
1679211959249,304,2
1679211959257,303,2
1679211959264,300,2
1679211959271,303,2
1679211959279,303,2
1679211959286,302,2
1679211959294,304,2
1679211959301,306,2
1679211959308,307,2
1679211959316,307,2
1679211959323,302,2
1679211959331,304,2
1679211959338,302,2
1679211959346,297,2
1679211959353,302,2
1679211959360,303,2
1679211959368,302,2
1679211959375,301,2
1679211959383,301,2
1679211959390,303,2
1679211959397,302,2
1679211959405,300,2
1679211959412,298,2
1679211959420,300,2
1679211959427,302,2
1679211959434,299,2
1679211959442,294,2
1679211959449,299,2
1679211959456,299,2
1679211959464,301,2
1679211959471,301,2
1679211959479,296,2
1679211959486,297,2
1679211959494,301,2
1679211959501,293,2
1679211959508,291,2
1679211959516,296,2
1679211959523,297,2
1679211959531,294,2
1679211959538,293,2
1679211959545,295,2
1679211959553,297,2
1679211959560,297,2
1679211959568,299,2
1679211959575,290,2
1679211959583,295,2
1679211959590,295,2
1679211959598,298,2
1679211959605,300,2
1679211959612,297,2
1679211959620,292,2
1679211959627,294,2
1679211959634,292,2
1679211959642,289,2
1679211959649,292,2
1679211959657,294,2
1679211959664,295,2
1679211959671,293,2
1679211959679,289,2
1679211959686,284,2
1679211959694,286,2
1679211959701,288,2
1679211959708,290,2
1679211959716,289,2
1679211959723,285,2
1679211959731,281,2
1679211959738,285,2
1679211959746,283,2
1679211959753,285,2
1679211959760,290,2
1679211959768,293,2
1679211959775,292,2
1679211959782,284,2
1679211959790,286,2
1679211959797,288,2
1679211959805,291,2
1679211959812,291,2
1679211959820,292,2
1679211959827,291,2
1679211959834,292,2
1679211959842,294,2
1679211959849,294,2
1679211959857,292,2
1679211959864,287,2
1679211959871,289,2
1679211959879,296,2
1679211959886,295,2
1679211959894,294,2
1679211959901,295,2
1679211959909,294,2
1679211959916,289,2
1679211959923,294,2
1679211959931,295,2
1679211959938,294,2
1679211959945,293,2
1679211959953,295,2
1679211959960,296,2
1679211959968,296,2
1679211959975,299,2
1679211959983,299,2
1679211959990,295,2
1679211959997,295,2
1679211960005,294,2
1679211960012,298,2
1679211960020,294,2
1679211960027,297,2
1679211960034,293,2
1679211960042,294,2
1679211960049,295,2
1679211960057,296,2
1679211960064,299,2
1679211960072,300,2
1679211960079,298,2
1679211960086,301,2
1679211960094,301,2
1679211960101,301,2
1679211960109,295,2
1679211960116,295,2
1679211960123,298,2
1679211960131,298,2
1679211960138,299,2
1679211960146,298,2
1679211960153,296,2
1679211960161,300,2
1679211960168,300,2
1679211960175,300,2
1679211960183,298,2
1679211960190,292,2
1679211960197,293,2
1679211960205,294,2
1679211960212,295,2
1679211960220,297,2
1679211960227,298,2
1679211960234,299,2
1679211960242,300,2
1679211960249,299,2
1679211960257,294,2
1679211960264,289,2
1679211960272,289,2
1679211960279,288,2
1679211960286,288,2
1679211960294,288,2
1679211960301,292,2
1679211960309,291,2
1679211960316,290,2
1679211960323,292,2
1679211960331,293,2
1679211960338,289,2
1679211960346,286,2
1679211960353,283,2
1679211960360,286,2
1679211960368,287,2
1679211960375,289,2
1679211960383,289,2
1679211960390,287,2
1679211960397,286,2
1679211960405,287,2
1679211960412,286,2
1679211960420,283,2
1679211960427,285,2
1679211960435,282,2
1679211960442,286,2
1679211960449,290,2
1679211960457,290,2
1679211960464,287,2
1679211960472,290,2
1679211960479,290,2
1679211960486,286,2
1679211960494,282,2
1679211960501,283,2
1679211960509,283,2
1679211960516,287,2
1679211960523,291,2
1679211960531,292,2
1679211960538,291,2
1679211960546,290,2
1679211960553,290,2
1679211960560,290,2
1679211960568,287,2
1679211960574,281,2
1679211960578,280,2
1679211960582,280,2
1679211960589,283,2
1679211960597,286,2
1679211960604,284,2
1679211960611,286,2
1679211960619,289,2
1679211960626,288,2
1679211960634,288,2
1679211960641,288,2
1679211960649,287,2
1679211960655,282,2
1679211960662,280,2
1679211960668,280,2
1679211960672,280,2
1679211960676,280,2
1679211960681,280,2
1679211960686,280,2
1679211960694,284,2
1679211960701,283,2
1679211960709,284,2
1679211960716,287,2
1679211960723,289,2
1679211960731,289,2
1679211960738,288,2
1679211960746,286,2
1679211960752,280,2
1679211960755,280,2
1679211960759,280,2
1679211960766,280,2
1679211960773,284,2
1679211960781,287,2
1679211960788,289,2
1679211960795,290,2
1679211960803,287,2
1679211960810,285,2
1679211960818,286,2
1679211960825,286,2
1679211960832,288,2
1679211960840,289,2
1679211960847,289,2
1679211960855,290,2
1679211960862,290,2
1679211960869,288,2
1679211960877,285,2
1679211960881,280,2
1679211960885,280,2
1679211960889,280,2
1679211960894,280,2
1679211960898,280,2
1679211960905,283,2
1679211960913,286,2
1679211960920,287,2
1679211960927,288,2
1679211960935,288,2
1679211960942,288,2
1679211960950,288,2
1679211960957,285,2
1679211960962,280,2
1679211960966,280,2
1679211960973,281,2
1679211960981,280,2
1679211960987,280,2
1679211960991,280,2
1679211960998,281,2
1679211961005,284,2
1679211961013,285,2
1679211961020,284,2
1679211961027,282,2
1679211961035,282,2
1679211961042,283,2
1679211961050,281,2
1679211961057,283,2
1679211961064,284,2
1679211961072,281,2
1679211961079,283,2
1679211961087,284,2
1679211961094,284,2
1679211961101,285,2
1679211961109,286,2
1679211961114,281,2
1679211961118,280,2
1679211961122,280,2
1679211961129,281,2
1679211961137,283,2
1679211961144,285,2
1679211961151,286,2
1679211961159,288,2
1679211961166,289,2
1679211961174,291,2
1679211961181,290,2
1679211961188,290,2
1679211961196,289,2
1679211961203,285,2
1679211961209,280,2
1679211961213,280,2
1679211961217,280,2
1679211961221,280,2
1679211961229,283,2
1679211961236,287,2
1679211961243,287,2
1679211961251,291,2
1679211961258,293,2
1679211961266,293,2
1679211961273,292,2
1679211961281,291,2
1679211961288,288,2
1679211961295,282,2
1679211961303,280,2
1679211961310,284,2
1679211961318,290,2
1679211961325,291,2
1679211961332,290,2
1679211961340,290,2
1679211961347,290,2
1679211961355,290,2
1679211961362,290,2
1679211961369,289,2
1679211961377,292,2
1679211961384,290,2
1679211961392,288,2
1679211961399,286,2
1679211961406,285,2
1679211961414,288,2
1679211961421,289,2
1679211961429,291,2
1679211961436,293,2
1679211961443,295,2
1679211961451,293,2
1679211961458,291,2
1679211961466,293,2
1679211961473,294,2
1679211961481,289,2
1679211961488,288,2
1679211961495,288,2
1679211961503,285,2
1679211961510,290,2
1679211961518,295,2
1679211961525,295,2
1679211961532,293,2
1679211961540,296,2
1679211961547,296,2
1679211961555,296,2
1679211961562,292,2
1679211961569,290,2
1679211961577,288,2
1679211961584,290,2
1679211961592,287,2
1679211961599,291,2
1679211961607,290,2
1679211961614,294,2
1679211961621,295,2
1679211961629,297,2
1679211961636,296,2
1679211961644,295,2
1679211961651,294,2
1679211961658,285,2
1679211961666,285,2
1679211961673,288,2
1679211961681,289,2
1679211961688,292,2
1679211961695,290,2
1679211961703,294,2
1679211961710,300,2
1679211961718,300,2
1679211961725,300,2
1679211961732,298,2
1679211961740,293,2
1679211961747,291,2
1679211961755,292,2
1679211961762,291,2
1679211961769,290,2
1679211961777,291,2
1679211961784,293,2
1679211961792,297,2
1679211961799,298,2
1679211961806,297,2
1679211961814,296,2
1679211961821,289,2
1679211961829,293,2
1679211961836,292,2
1679211961844,287,2
1679211961851,296,2
1679211961858,299,2
1679211961866,299,2
1679211961873,301,2
1679211961881,300,2
1679211961888,300,2
1679211961895,297,2
1679211961903,294,2
1679211961910,286,2
1679211961918,293,2
1679211961925,298,2
1679211961933,298,2
1679211961940,303,2
1679211961947,305,2
1679211961955,305,2
1679211961962,302,2
1679211961970,300,2
1679211961977,295,2
1679211961984,297,2
1679211961992,298,2
1679211961999,296,2
1679211962007,297,2
1679211962014,300,2
1679211962021,301,2
1679211962029,304,2
1679211962036,303,2
1679211962044,303,2
1679211962051,301,2
1679211962059,302,2
1679211962066,301,2
1679211962073,299,2
1679211962081,295,2
1679211962088,302,2
1679211962095,303,2
1679211962103,303,2
1679211962110,303,2
1679211962118,305,2
1679211962125,304,2
1679211962133,301,2
1679211962140,300,2
1679211962147,301,2
1679211962155,301,2
1679211962162,304,2
1679211962169,307,2
1679211962177,308,2
1679211962184,306,2
1679211962192,304,2
1679211962199,304,2
1679211962207,302,2
1679211962214,297,2
1679211962221,298,2
1679211962229,301,2
1679211962236,306,2
1679211962244,307,2
1679211962251,309,2
1679211962259,305,2
1679211962266,307,2
1679211962273,308,2
1679211962281,306,2
1679211962288,300,2
1679211962296,298,2
1679211962303,302,2
1679211962310,306,2
1679211962318,309,2
1679211962325,309,2
1679211962333,305,2
1679211962340,304,2
1679211962347,307,2
1679211962355,305,2
1679211962362,298,2
1679211962370,302,2
1679211962377,305,2
1679211962384,307,2
1679211962392,308,2
1679211962399,308,2
1679211962407,307,2
1679211962414,309,2
1679211962421,308,2
1679211962429,307,2
1679211962436,307,2
1679211962444,306,2
1679211962451,299,2
1679211962459,298,2
1679211962466,303,2
1679211962473,306,2
1679211962481,308,2
1679211962488,311,2
1679211962496,311,2
1679211962503,310,2
1679211962510,305,2
1679211962518,306,2
1679211962525,304,2
1679211962533,300,2
1679211962540,303,2
1679211962547,308,2
1679211962555,310,2
1679211962562,312,2
1679211962570,313,2
1679211962577,306,2
1679211962584,299,2
1679211962592,303,2
1679211962599,307,2
1679211962607,311,2
1679211962614,312,2
1679211962621,312,2
1679211962629,311,2
1679211962636,311,2
1679211962644,309,2
1679211962651,304,2
1679211962659,298,2
1679211962666,306,2
1679211962673,309,2
1679211962681,310,2
1679211962688,311,2
1679211962695,310,2
1679211962703,309,2
1679211962710,309,2
1679211962718,306,2
1679211962725,298,2
1679211962733,299,2
1679211962740,301,2
1679211962747,306,2
1679211962755,308,2
1679211962762,309,2
1679211962770,309,2
1679211962777,309,2
1679211962784,310,2
1679211962792,306,2
1679211962799,305,2
1679211962807,298,2
1679211962814,299,2
1679211962822,305,2
1679211962829,306,2
1679211962836,307,2
1679211962844,309,2
1679211962851,310,2
1679211962859,309,2
1679211962866,309,2
1679211962873,305,2
1679211962881,304,2
1679211962888,302,2
1679211962896,301,2
1679211962903,301,2
1679211962910,304,2
1679211962918,306,2
1679211962925,307,2
1679211962933,306,2
1679211962940,304,2
1679211962948,306,2
1679211962955,295,2
1679211962962,301,2
1679211962970,305,2
1679211962977,306,2
1679211962984,306,2
1679211962992,308,2
1679211962999,308,2
1679211963007,308,2
1679211963014,307,2
1679211963022,304,2
1679211963029,299,2
1679211963036,299,2
1679211963044,296,2
1679211963051,298,2
1679211963059,301,2
1679211963066,303,2
1679211963073,306,2
1679211963081,307,2
1679211963088,306,2
1679211963096,303,2
1679211963103,305,2
1679211963111,305,2
1679211963118,299,2
1679211963125,298,2
1679211963133,296,2
1679211963140,297,2
1679211963148,301,2
1679211963155,302,2
1679211963162,305,2
1679211963170,305,2
1679211963177,304,2
1679211963185,304,2
1679211963192,303,2
1679211963199,299,2
1679211963207,294,2
1679211963214,293,2
1679211963222,298,2
1679211963229,302,2
1679211963236,300,2
1679211963244,299,2
1679211963251,301,2
1679211963259,303,2
1679211963266,303,2
1679211963273,303,2
1679211963281,298,2
1679211963288,295,2
1679211963296,295,2
1679211963303,294,2
1679211963311,297,2
1679211963318,302,2
1679211963325,301,2
1679211963333,303,2
1679211963340,302,2
1679211963348,298,2
1679211963355,296,2
1679211963362,297,2
1679211963370,300,2
1679211963377,295,2
1679211963385,293,2
1679211963392,298,2
1679211963399,299,2
1679211963407,302,2
1679211963414,303,2
1679211963422,301,2
1679211963429,299,2
1679211963436,299,2
1679211963444,298,2
1679211963451,292,2
1679211963459,293,2
1679211963466,293,2
1679211963473,297,2
1679211963481,297,2
1679211963488,297,2
1679211963496,302,2
1679211963503,303,2
1679211963511,303,2
1679211963518,302,2
1679211963525,298,2
1679211963533,292,2
1679211963540,286,2
1679211963548,292,2
1679211963555,296,2
1679211963562,296,2
1679211963570,298,2
1679211963577,301,2
1679211963585,301,2
1679211963592,300,2
1679211963599,296,2
1679211963607,294,2
1679211963614,293,2
1679211963622,293,2
1679211963629,293,2
1679211963636,293,2
1679211963644,296,2
1679211963651,299,2
1679211963659,299,2
1679211963666,299,2
1679211963674,296,2
1679211963681,292,2
1679211963688,291,2
1679211963696,289,2
1679211963703,294,2
1679211963711,298,2
1679211963718,298,2
1679211963726,298,2
1679211963733,298,2
1679211963740,299,2
1679211963748,297,2
1679211963755,290,2
1679211963762,291,2
1679211963770,290,2
1679211963777,296,2
1679211963785,297,2
1679211963792,297,2
1679211963800,297,2
1679211963807,298,2
1679211963814,297,2
1679211963822,296,2
1679211963829,295,2
1679211963837,292,2
1679211963844,292,2
1679211963851,293,2
1679211963859,296,2
1679211963866,297,2
1679211963874,294,2
1679211963881,293,2
1679211963888,294,2
1679211963896,296,2
1679211963903,297,2
1679211963911,295,2
1679211963918,296,2
1679211963926,295,2
1679211963933,292,2
1679211963940,290,2
1679211963948,288,2
1679211963955,286,2
1679211963962,295,2
1679211963970,298,2
1679211963977,297,2
1679211963985,298,2
1679211963992,300,2
1679211964000,299,2
1679211964007,296,2
1679211964014,291,2
1679211964022,287,2
1679211964029,286,2
1679211964037,290,2
1679211964044,294,2
1679211964051,301,2
1679211964059,302,2
1679211964066,302,2
1679211964074,300,2
1679211964081,288,2
1679211964088,283,2
1679211964093,280,2
1679211964097,280,2
1679211964105,289,2
1679211964112,303,2
1679211964119,307,2
1679211964127,307,2
1679211964134,306,2
1679211964142,305,2
1679211964149,303,2
1679211964156,300,2
1679211964164,296,2
1679211964171,295,2
1679211964179,292,2
1679211964186,291,2
1679211964193,288,2
1679211964201,289,2
1679211964208,290,2
1679211964216,293,2
1679211964223,294,2
1679211964230,289,2
1679211964238,297,2
1679211964245,299,2
1679211964253,296,2
1679211964260,295,2
1679211964267,294,2
1679211964275,290,2
1679211964282,289,2
1679211964290,297,2
1679211964297,300,2
1679211964305,302,2
1679211964312,301,2
1679211964319,301,2
1679211964327,299,2
1679211964334,297,2
1679211964342,297,2
1679211964349,290,2
1679211964356,293,2
1679211964364,295,2
1679211964371,298,2
1679211964379,303,2
1679211964386,304,2
1679211964394,304,2
1679211964401,302,2
1679211964408,301,2
1679211964416,301,2
1679211964423,299,2
1679211964431,294,2
1679211964438,295,2
1679211964445,296,2
1679211964453,298,2
1679211964460,301,2
1679211964467,304,2
1679211964475,305,2
1679211964482,303,2
1679211964490,303,2
1679211964497,301,2
1679211964505,293,2
1679211964512,295,2
1679211964519,300,2
1679211964527,302,2
1679211964534,299,2
1679211964542,300,2
1679211964549,303,2
1679211964556,304,2
1679211964564,302,2
1679211964571,298,2
1679211964579,300,2
1679211964586,303,2
1679211964594,303,2
1679211964601,304,2
1679211964608,303,2
1679211964616,304,2
1679211964623,305,2
1679211964631,305,2
1679211964638,306,2
1679211964645,303,2
1679211964653,303,2
1679211964660,301,2
1679211964668,301,2
1679211964675,302,2
1679211964682,306,2
1679211964690,308,2
1679211964697,308,2
1679211964705,305,2
1679211964712,303,2
1679211964719,304,2
1679211964727,301,2
1679211964734,302,2
1679211964742,300,2
1679211964749,304,2
1679211964756,307,2
1679211964764,309,2
1679211964771,309,2
1679211964779,309,2
1679211964786,310,2
1679211964794,308,2
1679211964801,302,2
1679211964808,305,2
1679211964816,307,2
1679211964823,304,2
1679211964831,305,2
1679211964838,305,2
1679211964845,307,2
1679211964853,303,2
1679211964860,306,2
1679211964868,306,2
1679211964875,308,2
1679211964882,310,2
1679211964890,309,2
1679211964897,306,2
1679211964905,305,2
1679211964912,306,2
1679211964919,303,2
1679211964927,301,2
1679211964934,301,2
1679211964942,304,2
1679211964949,306,2
1679211964956,307,2
1679211964964,304,2
1679211964971,306,2
1679211964979,308,2
1679211964986,306,2
1679211964994,305,2
1679211965001,304,2
1679211965008,302,2
1679211965016,300,2
1679211965023,298,2
1679211965031,297,2
1679211965038,301,2
1679211965045,303,2
1679211965053,303,2
1679211965060,305,2
1679211965068,304,2
1679211965075,305,2
1679211965082,305,2
1679211965090,304,2
1679211965097,299,2
1679211965105,299,2
1679211965112,294,2
1679211965119,291,2
1679211965127,296,2
1679211965134,301,2
1679211965142,301,2
1679211965149,302,2
1679211965157,304,2
1679211965164,304,2
1679211965171,303,2
1679211965179,299,2
1679211965186,297,2
1679211965194,293,2
1679211965201,294,2
1679211965208,295,2
1679211965216,297,2
1679211965223,298,2
1679211965231,299,2
1679211965238,301,2
1679211965245,302,2
1679211965253,302,2
1679211965260,301,2
1679211965268,298,2
1679211965275,296,2
1679211965282,292,2
1679211965290,288,2
1679211965297,293,2
1679211965305,297,2
1679211965312,301,2
1679211965319,300,2
1679211965327,301,2
1679211965334,301,2
1679211965342,300,2
1679211965349,297,2
1679211965357,296,2
1679211965364,293,2
1679211965371,288,2
1679211965379,294,2
1679211965386,298,2
1679211965394,299,2
1679211965401,296,2
1679211965408,299,2
1679211965416,299,2
1679211965423,294,2
1679211965431,291,2
1679211965438,297,2
1679211965446,299,2
1679211965453,299,2
1679211965460,298,2
1679211965468,296,2
1679211965475,297,2
1679211965483,290,2
1679211965490,289,2
1679211965497,293,2
1679211965505,298,2
1679211965512,300,2
1679211965520,302,2
1679211965527,302,2
1679211965534,302,2
1679211965542,300,2
1679211965549,296,2
1679211965557,290,2
1679211965564,289,2
1679211965571,291,2
1679211965579,297,2
1679211965586,299,2
1679211965594,299,2
1679211965601,298,2
1679211965609,300,2
1679211965616,300,2
1679211965623,296,2
1679211965631,291,2
1679211965638,291,2
1679211965646,293,2
1679211965653,295,2
1679211965660,297,2
1679211965668,300,2
1679211965675,301,2
1679211965682,300,2
1679211965690,298,2
1679211965697,296,2
1679211965705,293,2
1679211965712,288,2
1679211965720,292,2
1679211965727,293,2
1679211965734,297,2
1679211965742,297,2
1679211965749,300,2
1679211965757,300,2
1679211965764,297,2
1679211965771,297,2
1679211965779,294,2
1679211965786,288,2
1679211965794,291,2
1679211965801,295,2
1679211965809,297,2
1679211965816,299,2
1679211965824,300,2
1679211965831,301,2
1679211965838,302,2
1679211965846,300,2
1679211965853,295,2
1679211965860,292,2
1679211965868,291,2
1679211965875,294,2
1679211965883,297,2
1679211965890,298,2
1679211965897,300,2
1679211965905,301,2
1679211965912,301,2
1679211965920,301,2
1679211965927,299,2
1679211965934,294,2
1679211965942,290,2
1679211965949,290,2
1679211965957,295,2
1679211965964,295,2
1679211965971,299,2
1679211965979,301,2
1679211965986,301,2
1679211965994,303,2
1679211966001,303,2
1679211966009,299,2
1679211966016,293,2
1679211966023,297,2
1679211966031,296,2
1679211966038,297,2
1679211966046,297,2
1679211966053,299,2
1679211966060,297,2
1679211966068,297,2
1679211966075,300,2
1679211966083,303,2
1679211966090,305,2
1679211966097,303,2
1679211966105,302,2
1679211966112,302,2
1679211966120,299,2
1679211966127,295,2
1679211966134,293,2
1679211966142,297,2
1679211966149,301,2
1679211966157,302,2
1679211966164,305,2
1679211966172,304,2
1679211966179,303,2
1679211966186,303,2
1679211966194,301,2
1679211966201,295,2
1679211966209,292,2
1679211966216,298,2
1679211966223,301,2
1679211966231,303,2
1679211966238,304,2
1679211966246,306,2
1679211966253,306,2
1679211966261,305,2
1679211966268,302,2
1679211966275,297,2
1679211966283,296,2
1679211966290,297,2
1679211966298,299,2
1679211966305,302,2
1679211966312,304,2
1679211966320,304,2
1679211966327,299,2
1679211966334,300,2
1679211966342,296,2
1679211966349,301,2
1679211966357,302,2
1679211966364,301,2
1679211966372,305,2
1679211966379,305,2
1679211966386,302,2
1679211966394,299,2
1679211966401,301,2
1679211966409,301,2
1679211966416,301,2
1679211966424,303,2
1679211966431,299,2
1679211966438,298,2
1679211966446,299,2
1679211966453,302,2
1679211966460,303,2
1679211966468,304,2
1679211966475,303,2
1679211966483,302,2
1679211966490,301,2
1679211966498,303,2
1679211966505,304,2
1679211966512,302,2
1679211966520,302,2
1679211966527,301,2
1679211966535,304,2
1679211966542,299,2
1679211966549,297,2
1679211966557,301,2
1679211966564,297,2
1679211966572,296,2
1679211966579,298,2
1679211966586,302,2
1679211966594,299,2
1679211966601,299,2
1679211966609,299,2
1679211966616,301,2
1679211966624,297,2
1679211966631,289,2
1679211966638,301,2
1679211966646,306,2
1679211966653,302,2
1679211966661,302,2
1679211966668,302,2
1679211966675,301,2
1679211966683,296,2
1679211966690,300,2
1679211966698,301,2
1679211966705,302,2
1679211966712,299,2
1679211966720,298,2
1679211966727,298,2
1679211966735,292,2
1679211966742,296,2
1679211966749,299,2
1679211966757,299,2
1679211966764,302,2
1679211966772,304,2
1679211966779,304,2
1679211966786,300,2
1679211966794,290,2
1679211966801,285,2
1679211966809,295,2
1679211966816,303,2
1679211966824,301,2
1679211966831,299,2
1679211966838,300,2
1679211966846,296,2
1679211966853,295,2
1679211966861,300,2
1679211966868,300,2
1679211966875,294,2
1679211966883,297,2
1679211966890,295,2
1679211966898,298,2
1679211966905,303,2
1679211966912,300,2
1679211966920,303,2
1679211966927,294,2
1679211966935,290,2
1679211966942,302,2
1679211966949,307,2
1679211966957,308,2
1679211966964,300,2
1679211966972,301,2
1679211966979,295,2
1679211966986,293,2
1679211966994,295,2
1679211967001,302,2
1679211967009,300,2
1679211967016,296,2
1679211967024,301,2
1679211967031,307,2
1679211967038,307,2
1679211967046,305,2
1679211967053,302,2
1679211967061,299,2
1679211967068,289,2
1679211967075,289,2
1679211967083,297,2
1679211967090,300,2
1679211967098,301,2
1679211967105,296,2
1679211967112,300,2
1679211967120,303,2
1679211967127,299,2
1679211967135,297,2
1679211967142,293,2
1679211967149,291,2
1679211967157,295,2
1679211967164,292,2
1679211967172,295,2
1679211967179,299,2
1679211967187,298,2
1679211967194,295,2
1679211967201,295,2
1679211967209,292,2
1679211967216,295,2
1679211967223,296,2
1679211967231,292,2
1679211967238,292,2
1679211967246,294,2
1679211967253,291,2
1679211967261,289,2
1679211967268,291,2
1679211967275,293,2
1679211967283,292,2
1679211967290,292,2
1679211967298,288,2
1679211967305,285,2
1679211967312,288,2
1679211967320,290,2
1679211967327,295,2
1679211967335,295,2
1679211967342,295,2
1679211967349,288,2
1679211967357,290,2
1679211967364,291,2
1679211967372,290,2
1679211967379,292,2
1679211967387,293,2
1679211967394,295,2
1679211967401,295,2
1679211967409,296,2
1679211967416,295,2
1679211967424,292,2
1679211967431,285,2
1679211967439,291,2
1679211967446,294,2
1679211967453,284,2
1679211967461,291,2
1679211967468,295,2
1679211967476,295,2
1679211967483,291,2
1679211967490,293,2
1679211967498,296,2
1679211967505,298,2
1679211967513,294,2
1679211967520,294,2
1679211967527,292,2
1679211967535,285,2
1679211967542,288,2
1679211967550,295,2
1679211967557,299,2
1679211967564,300,2
1679211967572,300,2
1679211967579,300,2
1679211967587,295,2
1679211967594,292,2
1679211967601,296,2
1679211967609,296,2
1679211967616,295,2
1679211967624,292,2
1679211967631,295,2
