1679211827053,296,2
1679211827060,297,2
1679211827067,298,2
1679211827074,298,2
1679211827082,297,2
1679211827089,301,2
1679211827097,302,2
1679211827104,297,2
1679211827112,298,2
1679211827119,297,2
1679211827126,297,2
1679211827134,294,2
1679211827141,293,2
1679211827149,298,2
1679211827156,300,2
1679211827163,297,2
1679211827171,297,2
1679211827178,300,2
1679211827186,300,2
1679211827193,298,2
1679211827200,297,2
1679211827208,298,2
1679211827215,294,2
1679211827223,295,2
1679211827230,298,2
1679211827237,296,2
1679211827245,299,2
1679211827252,298,2
1679211827260,299,2
1679211827267,301,2
1679211827275,302,2
1679211827282,299,2
1679211827289,298,2
1679211827297,297,2
1679211827304,297,2
1679211827312,296,2
1679211827319,296,2
1679211827326,296,2
1679211827334,298,2
1679211827341,300,2
1679211827349,299,2
1679211827356,299,2
1679211827363,298,2
1679211827371,296,2
1679211827378,296,2
1679211827386,297,2
1679211827393,293,2
1679211827400,297,2
1679211827408,300,2
1679211827415,301,2
1679211827423,300,2
1679211827430,300,2
1679211827438,299,2
1679211827445,298,2
1679211827452,296,2
1679211827460,293,2
1679211827467,292,2
1679211827475,293,2
1679211827482,296,2
1679211827489,299,2
1679211827497,300,2
1679211827504,302,2
1679211827512,301,2
1679211827519,299,2
1679211827527,296,2
1679211827534,297,2
1679211827541,296,2
1679211827549,294,2
1679211827556,294,2
1679211827564,296,2
1679211827571,296,2
1679211827578,295,2
1679211827586,296,2
1679211827593,298,2
1679211827601,299,2
1679211827608,297,2
1679211827615,299,2
1679211827623,291,2
1679211827630,294,2
1679211827638,296,2
1679211827645,298,2
1679211827652,298,2
1679211827660,302,2
1679211827667,304,2
1679211827675,304,2
1679211827682,302,2
1679211827690,301,2
1679211827697,295,2
1679211827704,289,2
1679211827712,294,2
1679211827719,296,2
1679211827727,298,2
1679211827734,300,2
1679211827741,302,2
1679211827749,303,2
1679211827756,303,2
1679211827764,300,2
1679211827771,300,2
1679211827778,299,2
1679211827786,293,2
1679211827793,291,2
1679211827801,290,2
1679211827808,292,2
1679211827815,294,2
1679211827823,299,2
1679211827830,302,2
1679211827838,302,2
1679211827845,302,2
1679211827852,299,2
1679211827860,295,2
1679211827867,290,2
1679211827875,292,2
1679211827882,296,2
1679211827889,299,2
1679211827897,301,2
1679211827904,303,2
1679211827912,305,2
1679211827919,304,2
1679211827927,303,2
1679211827934,301,2
1679211827941,297,2
1679211827949,290,2
1679211827956,289,2
1679211827964,293,2
1679211827971,297,2
1679211827978,300,2
1679211827986,300,2
1679211827993,300,2
1679211828001,301,2
1679211828008,302,2
1679211828015,301,2
1679211828023,297,2
1679211828030,295,2
1679211828038,291,2
1679211828045,294,2
1679211828052,295,2
1679211828060,297,2
1679211828067,300,2
1679211828075,300,2
1679211828082,297,2
1679211828090,300,2
1679211828097,301,2
1679211828104,301,2
1679211828112,298,2
1679211828119,291,2
1679211828127,288,2
1679211828134,294,2
1679211828142,301,2
1679211828149,302,2
1679211828156,303,2
1679211828164,304,2
1679211828171,303,2
1679211828178,300,2
1679211828186,294,2
1679211828193,291,2
1679211828201,292,2
1679211828208,300,2
1679211828215,301,2
1679211828223,299,2
1679211828230,301,2
1679211828238,300,2
1679211828245,298,2
1679211828253,296,2
1679211828260,294,2
1679211828267,299,2
1679211828275,300,2
1679211828282,302,2
1679211828290,303,2
1679211828297,302,2
1679211828304,301,2
1679211828312,301,2
1679211828319,300,2
1679211828327,297,2
1679211828334,289,2
1679211828342,290,2
1679211828349,294,2
1679211828356,298,2
1679211828364,298,2
1679211828371,299,2
1679211828379,298,2
1679211828386,300,2
1679211828393,301,2
1679211828401,301,2
1679211828408,298,2
1679211828416,295,2
1679211828423,294,2
1679211828430,296,2
1679211828438,298,2
1679211828445,297,2
1679211828453,297,2
1679211828460,299,2
1679211828467,300,2
1679211828475,300,2
1679211828482,296,2
1679211828490,293,2
1679211828497,295,2
1679211828504,298,2
1679211828512,297,2
1679211828519,297,2
1679211828527,298,2
1679211828534,299,2
1679211828542,300,2
1679211828549,300,2
1679211828556,300,2
1679211828564,297,2
1679211828571,295,2
1679211828579,295,2
1679211828586,291,2
1679211828593,298,2
1679211828601,299,2
1679211828608,301,2
1679211828616,300,2
1679211828623,299,2
1679211828630,293,2
1679211828638,298,2
1679211828645,301,2
1679211828653,300,2
1679211828660,295,2
1679211828667,298,2
1679211828675,300,2
1679211828682,301,2
1679211828690,301,2
1679211828697,291,2
1679211828705,292,2
1679211828712,296,2
1679211828719,301,2
1679211828727,301,2
1679211828734,297,2
1679211828742,294,2
1679211828749,295,2
1679211828756,299,2
1679211828764,300,2
1679211828771,300,2
1679211828779,300,2
1679211828786,300,2
1679211828793,301,2
1679211828801,298,2
1679211828808,295,2
1679211828816,295,2
1679211828823,294,2
1679211828830,299,2
1679211828838,300,2
1679211828845,302,2
1679211828853,300,2
1679211828860,299,2
1679211828867,301,2
1679211828875,300,2
1679211828882,291,2
1679211828890,291,2
1679211828897,294,2
1679211828904,298,2
1679211828912,299,2
1679211828919,299,2
1679211828927,297,2
1679211828934,300,2
1679211828942,298,2
1679211828949,302,2
1679211828956,302,2
1679211828964,299,2
1679211828971,299,2
1679211828979,297,2
1679211828986,294,2
1679211828993,291,2
1679211829001,294,2
1679211829008,296,2
1679211829016,297,2
1679211829023,299,2
1679211829031,300,2
1679211829038,299,2
1679211829045,301,2
1679211829053,299,2
1679211829060,298,2
1679211829067,298,2
1679211829075,297,2
1679211829082,297,2
1679211829090,298,2
1679211829097,299,2
1679211829105,297,2
1679211829112,296,2
1679211829119,296,2
1679211829127,298,2
1679211829134,296,2
1679211829142,296,2
1679211829149,301,2
1679211829156,306,2
1679211829164,305,2
1679211829171,303,2
1679211829179,303,2
1679211829186,299,2
1679211829194,294,2
1679211829201,297,2
1679211829208,296,2
1679211829216,300,2
1679211829223,303,2
1679211829231,300,2
1679211829238,295,2
1679211829245,294,2
1679211829253,296,2
1679211829260,297,2
1679211829268,299,2
1679211829275,303,2
1679211829282,302,2
1679211829290,298,2
1679211829297,294,2
1679211829305,299,2
1679211829312,300,2
1679211829319,299,2
1679211829327,297,2
1679211829334,299,2
1679211829342,300,2
1679211829349,296,2
1679211829356,298,2
1679211829364,300,2
1679211829371,292,2
1679211829379,295,2
1679211829386,299,2
1679211829394,301,2
1679211829401,300,2
1679211829408,299,2
1679211829416,301,2
1679211829423,302,2
1679211829431,296,2
1679211829438,296,2
1679211829445,298,2
1679211829453,299,2
1679211829460,296,2
1679211829468,299,2
1679211829475,301,2
1679211829482,297,2
1679211829490,296,2
1679211829497,300,2
1679211829505,301,2
1679211829512,301,2
1679211829519,302,2
1679211829527,301,2
1679211829534,295,2
1679211829542,292,2
1679211829549,299,2
1679211829557,302,2
1679211829564,301,2
1679211829571,297,2
1679211829579,297,2
1679211829586,294,2
1679211829594,296,2
1679211829601,298,2
1679211829608,300,2
1679211829616,301,2
1679211829623,302,2
1679211829631,298,2
1679211829638,297,2
1679211829645,298,2
1679211829653,299,2
1679211829660,297,2
1679211829668,295,2
1679211829675,297,2
1679211829682,298,2
1679211829690,299,2
1679211829697,295,2
1679211829705,297,2
1679211829712,298,2
1679211829719,294,2
1679211829727,297,2
1679211829734,300,2
1679211829742,294,2
1679211829749,295,2
1679211829757,300,2
1679211829764,303,2
1679211829771,302,2
1679211829779,300,2
1679211829786,297,2
1679211829794,301,2
1679211829801,299,2
1679211829808,299,2
1679211829816,297,2
1679211829823,299,2
1679211829831,297,2
1679211829838,299,2
1679211829845,301,2
1679211829853,299,2
1679211829860,295,2
1679211829868,297,2
1679211829875,297,2
1679211829882,297,2
1679211829890,300,2
1679211829897,303,2
1679211829905,299,2
1679211829912,297,2
1679211829919,298,2
1679211829927,299,2
1679211829934,291,2
1679211829942,293,2
1679211829949,301,2
1679211829957,301,2
1679211829964,299,2
1679211829971,300,2
1679211829979,302,2
1679211829986,301,2
1679211829994,299,2
1679211830001,290,2
1679211830009,286,2
1679211830016,296,2
1679211830023,299,2
1679211830031,300,2
1679211830038,300,2
1679211830046,299,2
1679211830053,301,2
1679211830060,299,2
1679211830068,295,2
1679211830075,292,2
1679211830083,291,2
1679211830090,299,2
1679211830097,302,2
1679211830105,301,2
1679211830112,298,2
1679211830120,298,2
1679211830127,292,2
1679211830134,294,2
1679211830142,295,2
1679211830149,294,2
1679211830157,300,2
1679211830164,303,2
1679211830171,303,2
1679211830179,301,2
1679211830186,299,2
1679211830194,300,2
1679211830201,300,2
1679211830208,299,2
1679211830216,292,2
1679211830223,288,2
1679211830231,290,2
1679211830238,296,2
1679211830246,301,2
1679211830253,303,2
1679211830260,302,2
1679211830268,303,2
1679211830275,304,2
1679211830283,302,2
1679211830290,294,2
1679211830297,295,2
1679211830305,294,2
1679211830312,294,2
1679211830320,295,2
1679211830327,297,2
1679211830334,301,2
1679211830342,300,2
1679211830349,296,2
1679211830357,298,2
1679211830364,301,2
1679211830371,302,2
1679211830379,302,2
1679211830386,301,2
1679211830394,296,2
1679211830401,297,2
1679211830409,294,2
1679211830416,296,2
1679211830423,296,2
1679211830431,295,2
1679211830438,299,2
1679211830446,302,2
1679211830453,303,2
1679211830460,305,2
1679211830468,305,2
1679211830475,302,2
1679211830483,301,2
1679211830490,299,2
1679211830497,291,2
1679211830505,292,2
1679211830512,299,2
1679211830520,301,2
1679211830527,301,2
1679211830534,296,2
1679211830542,296,2
1679211830549,301,2
1679211830557,301,2
1679211830564,297,2
1679211830572,295,2
1679211830579,296,2
1679211830586,297,2
1679211830594,298,2
1679211830601,297,2
1679211830609,297,2
1679211830616,299,2
1679211830623,298,2
1679211830631,299,2
1679211830638,300,2
1679211830646,302,2
1679211830653,302,2
1679211830660,300,2
1679211830668,297,2
1679211830675,294,2
1679211830683,295,2
1679211830690,293,2
1679211830697,297,2
1679211830705,299,2
1679211830712,301,2
1679211830720,300,2
1679211830727,302,2
1679211830734,302,2
1679211830742,298,2
1679211830749,299,2
1679211830757,298,2
1679211830764,298,2
1679211830772,299,2
1679211830779,299,2
1679211830786,298,2
1679211830794,295,2
1679211830801,296,2
1679211830809,298,2
1679211830816,299,2
1679211830823,298,2
1679211830831,300,2
1679211830838,299,2
1679211830846,300,2
1679211830853,302,2
1679211830861,301,2
1679211830868,301,2
1679211830875,299,2
1679211830883,296,2
1679211830890,297,2
1679211830897,296,2
1679211830905,294,2
1679211830912,294,2
1679211830920,297,2
1679211830927,298,2
1679211830935,300,2
1679211830942,301,2
1679211830949,300,2
1679211830957,299,2
1679211830964,300,2
1679211830972,300,2
1679211830979,295,2
1679211830986,294,2
1679211830994,299,2
1679211831001,299,2
1679211831009,301,2
1679211831016,300,2
1679211831023,298,2
1679211831031,299,2
1679211831038,301,2
1679211831046,300,2
1679211831053,298,2
1679211831061,297,2
1679211831068,293,2
1679211831075,296,2
1679211831083,297,2
1679211831090,296,2
1679211831098,298,2
1679211831105,299,2
1679211831112,300,2
1679211831120,300,2
1679211831127,299,2
1679211831135,299,2
1679211831142,297,2
1679211831149,298,2
1679211831157,297,2
1679211831164,297,2
1679211831172,296,2
1679211831181,298,2
1679211831187,300,2
1679211831194,301,2
1679211831201,298,2
1679211831209,298,2
1679211831216,301,2
1679211831223,301,2
1679211831231,298,2
1679211831238,299,2
1679211831246,298,2
1679211831253,297,2
1679211831261,297,2
1679211831268,296,2
1679211831275,299,2
1679211831283,299,2
1679211831290,298,2
1679211831298,300,2
1679211831305,300,2
1679211831312,297,2
1679211831320,297,2
1679211831327,298,2
1679211831335,301,2
1679211831342,301,2
1679211831349,301,2
1679211831357,296,2
1679211831364,296,2
1679211831372,295,2
1679211831379,298,2
1679211831386,298,2
1679211831394,299,2
1679211831401,301,2
1679211831409,302,2
1679211831416,300,2
1679211831423,297,2
1679211831431,296,2
1679211831438,299,2
1679211831446,296,2
1679211831453,299,2
1679211831461,295,2
1679211831468,299,2
1679211831475,299,2
1679211831483,300,2
1679211831490,302,2
1679211831498,300,2
1679211831505,297,2
1679211831512,298,2
1679211831520,299,2
1679211831527,300,2
1679211831535,298,2
1679211831542,295,2
1679211831549,297,2
1679211831557,301,2
1679211831564,301,2
1679211831572,301,2
1679211831579,299,2
1679211831586,295,2
1679211831594,297,2
1679211831601,296,2
1679211831609,294,2
1679211831616,296,2
1679211831624,298,2
1679211831631,298,2
1679211831638,301,2
1679211831646,300,2
1679211831653,299,2
1679211831661,298,2
1679211831668,296,2
1679211831675,293,2
1679211831683,292,2
1679211831690,298,2
1679211831698,298,2
1679211831705,299,2
1679211831712,302,2
1679211831720,301,2
1679211831727,298,2
1679211831735,299,2
1679211831742,301,2
1679211831749,302,2
1679211831757,300,2
1679211831764,299,2
1679211831772,297,2
1679211831779,297,2
1679211831786,292,2
1679211831794,296,2
1679211831801,299,2
1679211831809,299,2
1679211831816,301,2
1679211831824,299,2
1679211831831,298,2
1679211831838,299,2
1679211831846,298,2
1679211831853,296,2
1679211831861,297,2
1679211831868,301,2
1679211831876,301,2
1679211831883,298,2
1679211831890,299,2
1679211831898,300,2
1679211831905,295,2
1679211831913,295,2
1679211831920,300,2
1679211831927,298,2
1679211831935,296,2
1679211831942,299,2
1679211831950,301,2
1679211831957,300,2
1679211831964,298,2
1679211831972,294,2
1679211831979,296,2
1679211831987,298,2
1679211831994,298,2
1679211832001,296,2
1679211832009,296,2
1679211832016,300,2
1679211832024,300,2
1679211832031,299,2
1679211832038,298,2
1679211832046,298,2
1679211832053,297,2
1679211832061,298,2
1679211832068,296,2
1679211832076,295,2
1679211832083,299,2
1679211832090,297,2
1679211832098,297,2
1679211832105,298,2
1679211832113,296,2
1679211832120,296,2
1679211832127,295,2
1679211832135,296,2
1679211832142,298,2
1679211832150,300,2
1679211832157,296,2
1679211832164,298,2
1679211832172,298,2
1679211832179,296,2
1679211832187,298,2
1679211832194,297,2
1679211832201,294,2
1679211832209,295,2
1679211832216,299,2
1679211832224,299,2
1679211832231,298,2
1679211832238,298,2
1679211832246,298,2
1679211832253,297,2
1679211832261,292,2
1679211832268,295,2
1679211832276,297,2
1679211832283,294,2
1679211832291,297,2
1679211832298,301,2
1679211832305,300,2
1679211832313,300,2
1679211832320,299,2
1679211832327,295,2
1679211832335,294,2
1679211832342,296,2
1679211832350,293,2
1679211832357,297,2
1679211832365,299,2
1679211832372,302,2
1679211832379,303,2
1679211832387,302,2
1679211832394,300,2
1679211832401,297,2
1679211832409,297,2
1679211832416,295,2
1679211832424,296,2
1679211832431,297,2
1679211832439,296,2
1679211832446,292,2
1679211832453,295,2
1679211832461,298,2
1679211832468,300,2
1679211832476,302,2
1679211832483,302,2
1679211832491,300,2
1679211832498,300,2
1679211832505,298,2
1679211832513,299,2
1679211832520,297,2
1679211832528,296,2
1679211832535,294,2
1679211832542,295,2
1679211832550,295,2
1679211832557,298,2
1679211832565,297,2
1679211832572,297,2
1679211832579,297,2
1679211832587,298,2
1679211832594,301,2
1679211832601,300,2
1679211832609,299,2
1679211832616,300,2
1679211832624,300,2
1679211832631,297,2
1679211832639,290,2
1679211832646,291,2
1679211832653,295,2
1679211832661,292,2
1679211832668,296,2
1679211832676,300,2
1679211832683,303,2
1679211832690,303,2
1679211832698,302,2
1679211832705,301,2
1679211832713,298,2
1679211832720,294,2
1679211832727,289,2
1679211832735,293,2
1679211832742,295,2
1679211832750,299,2
1679211832757,301,2
1679211832765,302,2
1679211832772,302,2
1679211832779,302,2
1679211832787,300,2
1679211832794,296,2
1679211832802,295,2
1679211832809,288,2
1679211832816,291,2
1679211832824,296,2
1679211832831,300,2
1679211832839,301,2
1679211832846,303,2
1679211832853,304,2
1679211832861,302,2
1679211832868,301,2
1679211832876,298,2
1679211832883,292,2
1679211832890,292,2
1679211832898,292,2
1679211832906,294,2
1679211832913,297,2
1679211832920,299,2
1679211832928,301,2
1679211832935,302,2
1679211832942,300,2
1679211832950,300,2
1679211832957,296,2
1679211832965,295,2
1679211832972,294,2
1679211832979,296,2
1679211832987,299,2
1679211832994,300,2
1679211833002,299,2
1679211833009,299,2
1679211833016,300,2
1679211833024,298,2
1679211833031,294,2
1679211833039,295,2
1679211833046,296,2
1679211833053,299,2
1679211833061,297,2
1679211833068,300,2
1679211833076,301,2
1679211833083,299,2
1679211833091,297,2
1679211833098,298,2
1679211833105,300,2
1679211833113,300,2
1679211833120,300,2
1679211833128,298,2
1679211833135,296,2
1679211833142,291,2
1679211833150,291,2
1679211833157,295,2
1679211833165,297,2
1679211833172,295,2
1679211833180,298,2
1679211833187,300,2
1679211833194,301,2
1679211833202,299,2
1679211833209,294,2
1679211833217,292,2
1679211833224,293,2
1679211833231,294,2
1679211833239,299,2
1679211833246,299,2
1679211833254,299,2
1679211833261,299,2
1679211833268,300,2
1679211833276,301,2
1679211833283,299,2
1679211833291,299,2
1679211833298,297,2
1679211833305,294,2
1679211833313,295,2
1679211833320,296,2
1679211833328,297,2
1679211833335,301,2
1679211833342,301,2
1679211833350,301,2
1679211833357,298,2
1679211833365,297,2
1679211833372,297,2
1679211833380,290,2
1679211833387,291,2
1679211833395,296,2
1679211833402,299,2
1679211833409,300,2
1679211833417,302,2
1679211833424,300,2
1679211833431,299,2
1679211833439,298,2
1679211833446,295,2
1679211833454,290,2
1679211833461,291,2
1679211833468,295,2
1679211833476,299,2
1679211833483,301,2
1679211833491,302,2
1679211833498,303,2
1679211833505,302,2
1679211833513,301,2
1679211833520,299,2
1679211833528,298,2
1679211833535,293,2
1679211833543,294,2
1679211833550,294,2
1679211833557,295,2
1679211833565,299,2
1679211833572,299,2
1679211833580,301,2
1679211833587,301,2
1679211833594,301,2
1679211833602,299,2
1679211833609,295,2
1679211833617,294,2
1679211833624,297,2
1679211833632,297,2
1679211833639,296,2
1679211833646,300,2
1679211833654,300,2
1679211833661,300,2
1679211833668,299,2
1679211833676,297,2
1679211833683,297,2
1679211833691,296,2
1679211833698,295,2
1679211833706,294,2
1679211833713,296,2
1679211833720,298,2
1679211833728,301,2
1679211833735,303,2
1679211833743,302,2
1679211833750,300,2
1679211833758,299,2
1679211833765,295,2
1679211833772,296,2
1679211833780,298,2
1679211833787,295,2
1679211833795,295,2
1679211833802,295,2
1679211833809,298,2
1679211833817,301,2
1679211833824,302,2
1679211833832,301,2
1679211833839,300,2
1679211833846,299,2
1679211833854,299,2
1679211833861,297,2
1679211833869,293,2
1679211833876,290,2
1679211833883,287,2
1679211833891,293,2
1679211833898,297,2
1679211833906,299,2
1679211833913,302,2
1679211833920,302,2
1679211833928,302,2
1679211833935,301,2
1679211833943,297,2
1679211833950,286,2
1679211833957,289,2
1679211833965,295,2
1679211833972,295,2
1679211833980,294,2
1679211833987,299,2
1679211833995,300,2
1679211834002,298,2
1679211834009,300,2
1679211834017,304,2
1679211834024,304,2
1679211834032,303,2
1679211834039,301,2
1679211834046,300,2
1679211834054,299,2
1679211834061,300,2
1679211834069,299,2
1679211834076,295,2
1679211834083,298,2
1679211834091,296,2
1679211834098,299,2
1679211834106,299,2
1679211834113,300,2
1679211834120,301,2
1679211834128,300,2
1679211834135,296,2
1679211834143,292,2
1679211834150,293,2
1679211834158,298,2
1679211834165,299,2
1679211834172,301,2
1679211834180,301,2
1679211834187,299,2
1679211834195,297,2
1679211834202,299,2
1679211834209,299,2
1679211834217,298,2
1679211834224,297,2
1679211834232,295,2
1679211834239,294,2
1679211834246,294,2
1679211834254,293,2
1679211834261,298,2
1679211834269,301,2
1679211834276,301,2
1679211834283,301,2
1679211834291,300,2
1679211834298,301,2
1679211834306,298,2
1679211834313,295,2
1679211834321,292,2
1679211834328,291,2
1679211834335,296,2
1679211834343,297,2
1679211834350,301,2
1679211834358,304,2
1679211834365,304,2
1679211834372,303,2
1679211834380,302,2
1679211834387,301,2
1679211834395,299,2
1679211834402,296,2
1679211834409,293,2
1679211834417,288,2
1679211834424,291,2
1679211834432,294,2
1679211834439,300,2
1679211834446,303,2
1679211834454,304,2
1679211834461,304,2
1679211834469,301,2
1679211834476,295,2
1679211834483,296,2
1679211834491,292,2
1679211834498,289,2
1679211834506,295,2
1679211834513,301,2
1679211834521,304,2
1679211834528,305,2
1679211834535,304,2
1679211834543,303,2
1679211834550,302,2
1679211834558,295,2
1679211834565,289,2
1679211834572,292,2
1679211834580,293,2
1679211834587,294,2
1679211834595,299,2
1679211834602,302,2
1679211834610,303,2
1679211834617,303,2
1679211834624,302,2
1679211834632,299,2
1679211834639,294,2
1679211834647,289,2
1679211834654,293,2
1679211834661,296,2
1679211834669,295,2
1679211834676,298,2
1679211834683,301,2
1679211834691,302,2
1679211834698,301,2
1679211834706,300,2
1679211834713,300,2
1679211834721,297,2
1679211834728,297,2
1679211834735,295,2
1679211834743,297,2
1679211834750,297,2
1679211834758,297,2
1679211834765,297,2
1679211834772,299,2
1679211834780,297,2
1679211834787,296,2
1679211834795,300,2
1679211834802,298,2
1679211834810,301,2
1679211834817,300,2
1679211834824,302,2
1679211834832,301,2
1679211834839,296,2
1679211834847,295,2
1679211834854,299,2
1679211834861,301,2
1679211834869,300,2
1679211834876,298,2
1679211834884,299,2
1679211834891,301,2
1679211834898,300,2
1679211834906,297,2
1679211834913,297,2
1679211834921,298,2
1679211834928,299,2
1679211834935,293,2
1679211834943,295,2
1679211834950,298,2
1679211834958,298,2
1679211834965,301,2
1679211834972,300,2
1679211834980,299,2
1679211834987,296,2
1679211834995,298,2
1679211835002,299,2
1679211835010,296,2
1679211835017,296,2
1679211835024,299,2
1679211835032,297,2
1679211835039,292,2
1679211835047,297,2
1679211835054,300,2
1679211835061,300,2
1679211835069,297,2
1679211835076,297,2
1679211835084,298,2
1679211835091,296,2
1679211835098,296,2
1679211835106,300,2
1679211835113,300,2
1679211835121,299,2
1679211835128,298,2
1679211835136,300,2
1679211835143,300,2
1679211835150,296,2
1679211835158,294,2
1679211835165,292,2
1679211835173,295,2
1679211835180,299,2
1679211835187,299,2
1679211835195,300,2
1679211835202,301,2
1679211835210,300,2
1679211835217,301,2
1679211835224,301,2
1679211835232,295,2
1679211835239,294,2
1679211835247,293,2
1679211835254,299,2
1679211835262,301,2
1679211835269,300,2
1679211835276,298,2
1679211835284,297,2
1679211835291,294,2
1679211835299,291,2
1679211835306,296,2
1679211835313,302,2
1679211835321,304,2
1679211835328,303,2
1679211835335,304,2
1679211835343,304,2
1679211835350,302,2
1679211835358,297,2
1679211835365,295,2
1679211835372,293,2
1679211835380,292,2
1679211835387,295,2
1679211835395,298,2
1679211835402,300,2
1679211835410,300,2
1679211835417,300,2
1679211835424,300,2
1679211835432,299,2
1679211835439,300,2
1679211835447,297,2
1679211835454,297,2
1679211835461,298,2
1679211835469,294,2
1679211835476,295,2
1679211835484,296,2
1679211835491,294,2
1679211835498,295,2
1679211835506,298,2
1679211835513,300,2
1679211835521,298,2
1679211835528,300,2
1679211835536,300,2
1679211835543,301,2
1679211835550,299,2
1679211835558,297,2
1679211835565,294,2
1679211835573,295,2
1679211835580,295,2
1679211835587,289,2
1679211835595,293,2
1679211835602,296,2
1679211835610,296,2
1679211835617,297,2
1679211835624,299,2
1679211835632,301,2
1679211835639,300,2
1679211835647,298,2
1679211835654,295,2
1679211835662,292,2
1679211835669,296,2
1679211835676,299,2
1679211835684,298,2
1679211835691,297,2
1679211835698,300,2
1679211835706,299,2
1679211835713,293,2
1679211835721,293,2
1679211835728,294,2
1679211835736,298,2
1679211835743,302,2
1679211835750,305,2
1679211835758,306,2
1679211835765,305,2
1679211835773,303,2
1679211835780,301,2
1679211835787,300,2
1679211835795,294,2
1679211835802,291,2
1679211835810,287,2
1679211835817,288,2
1679211835825,295,2
1679211835832,298,2
1679211835839,302,2
1679211835847,303,2
1679211835854,303,2
1679211835862,302,2
1679211835869,300,2
1679211835876,299,2
1679211835884,294,2
1679211835891,287,2
1679211835899,289,2
1679211835906,292,2
1679211835913,294,2
1679211835921,296,2
1679211835928,295,2
1679211835936,300,2
1679211835943,298,2
1679211835950,301,2
1679211835958,303,2
1679211835965,300,2
1679211835973,299,2
1679211835980,301,2
1679211835987,300,2
1679211835995,294,2
1679211836002,293,2
1679211836010,297,2
1679211836017,299,2
1679211836024,302,2
1679211836032,301,2
1679211836039,300,2
1679211836047,299,2
1679211836054,297,2
1679211836062,295,2
1679211836069,294,2
1679211836076,293,2
1679211836084,297,2
1679211836091,300,2
1679211836099,302,2
1679211836106,303,2
1679211836113,303,2
1679211836121,302,2
1679211836128,299,2
1679211836136,295,2
1679211836143,296,2
1679211836150,293,2
1679211836158,296,2
1679211836165,296,2
1679211836173,298,2
1679211836180,300,2
1679211836187,299,2
1679211836195,301,2
1679211836202,301,2
1679211836210,300,2
1679211836217,294,2
1679211836225,295,2
1679211836232,292,2
1679211836239,297,2
1679211836247,297,2
1679211836254,298,2
1679211836262,299,2
1679211836269,300,2
1679211836276,300,2
1679211836284,296,2
1679211836291,297,2
1679211836299,299,2
1679211836306,301,2
1679211836314,303,2
1679211836321,304,2
1679211836328,304,2
1679211836336,303,2
1679211836343,300,2
1679211836350,295,2
1679211836358,293,2
1679211836365,294,2
1679211836373,291,2
1679211836380,296,2
1679211836388,299,2
1679211836395,302,2
1679211836402,304,2
1679211836410,303,2
1679211836417,301,2
1679211836425,298,2
1679211836432,298,2
1679211836439,294,2
1679211836447,290,2
1679211836454,291,2
1679211836462,295,2
1679211836469,300,2
1679211836477,302,2
1679211836484,301,2
1679211836491,300,2
1679211836499,301,2
1679211836506,300,2
1679211836514,299,2
1679211836521,297,2
1679211836528,298,2
1679211836536,301,2
1679211836543,303,2
1679211836551,303,2
1679211836558,300,2
1679211836565,298,2
1679211836573,300,2
1679211836580,300,2
1679211836588,296,2
1679211836595,297,2
1679211836602,298,2
1679211836610,300,2
1679211836617,302,2
1679211836625,303,2
1679211836632,305,2
1679211836640,304,2
1679211836647,301,2
1679211836654,301,2
1679211836662,301,2
1679211836669,298,2
1679211836677,291,2
1679211836684,293,2
1679211836691,299,2
1679211836699,301,2
1679211836706,303,2
1679211836714,302,2
1679211836721,302,2
1679211836728,301,2
1679211836736,301,2
1679211836743,299,2
1679211836751,283,2
1679211836758,287,2
1679211836765,293,2
1679211836773,300,2
1679211836780,302,2
1679211836788,302,2
1679211836795,303,2
1679211836802,303,2
1679211836810,302,2
1679211836817,301,2
1679211836825,296,2
1679211836832,289,2
1679211836839,294,2
