1679909108472,306,2
1679909108480,307,2
1679909108487,308,2
1679909108494,305,2
1679909108502,303,2
1679909108509,305,2
1679909108516,304,2
1679909108524,304,2
1679909108531,306,2
1679909108539,307,2
1679909108546,306,2
1679909108554,304,2
1679909108561,303,2
1679909108568,305,2
1679909108576,301,2
1679909108583,304,2
1679909108591,305,2
1679909108598,307,2
1679909108605,307,2
1679909108613,305,2
1679909108620,303,2
1679909108628,302,2
1679909108635,304,2
1679909108642,305,2
1679909108650,306,2
1679909108657,304,2
1679909108665,303,2
1679909108672,301,2
1679909108679,302,2
1679909108687,307,2
1679909108694,309,2
1679909108702,308,2
1679909108709,306,2
1679909108717,307,2
1679909108724,304,2
1679909108731,300,2
1679909108739,302,2
1679909108746,305,2
1679909108754,304,2
1679909108761,306,2
1679909108768,308,2
1679909108776,307,2
1679909108783,305,2
1679909108791,303,2
1679909108798,301,2
1679909108805,305,2
1679909108813,306,2
1679909108820,306,2
1679909108828,305,2
1679909108835,308,2
1679909108842,309,2
1679909108850,308,2
1679909108857,305,2
1679909108865,307,2
1679909108872,305,2
1679909108879,304,2
1679909108887,304,2
1679909108894,305,2
1679909108902,305,2
1679909108909,307,2
1679909108917,307,2
1679909108924,304,2
1679909108931,305,2
1679909108939,306,2
1679909108946,304,2
1679909108954,303,2
1679909108961,303,2
1679909108968,305,2
1679909108976,305,2
1679909108983,306,2
1679909108991,304,2
1679909108998,305,2
1679909109005,306,2
1679909109013,307,2
1679909109020,306,2
1679909109028,305,2
1679909109035,304,2
1679909109042,304,2
1679909109050,303,2
1679909109057,303,2
1679909109065,304,2
1679909109072,305,2
1679909109080,307,2
1679909109087,308,2
1679909109094,308,2
1679909109102,306,2
1679909109109,306,2
1679909109117,305,2
1679909109124,300,2
1679909109131,300,2
1679909109139,302,2
1679909109146,306,2
1679909109154,308,2
1679909109161,308,2
1679909109168,308,2
1679909109176,307,2
1679909109183,305,2
1679909109191,302,2
1679909109198,300,2
1679909109205,297,2
1679909109213,301,2
1679909109220,305,2
1679909109228,305,2
1679909109236,306,2
1679909109243,303,2
1679909109253,307,2
1679909109258,307,2
1679909109272,310,2
1679909109283,311,2
1679909109284,310,2
1679909109291,309,2
1679909109311,308,2
1679909109311,307,2
1679909109311,304,2
1679909109323,301,2
1679909109324,298,2
1679909109341,303,2
1679909109342,304,2
1679909109347,304,2
1679909109354,306,2
1679909109365,307,2
1679909109374,307,2
1679909109391,305,2
1679909109391,304,2
1679909109391,304,2
1679909109399,302,2
1679909109406,300,2
1679909109414,300,2
1679909109420,306,2
1679909109428,308,2
1679909109435,308,2
1679909109443,307,2
1679909109450,307,2
1679909109457,306,2
1679909109465,305,2
1679909109472,305,2
1679909109480,304,2
1679909109487,300,2
1679909109494,302,2
1679909109502,302,2
1679909109509,301,2
1679909109517,304,2
1679909109524,306,2
1679909109531,308,2
1679909109539,307,2
1679909109546,308,2
1679909109554,307,2
1679909109561,303,2
1679909109569,303,2
1679909109576,302,2
1679909109583,304,2
1679909109591,304,2
1679909109598,304,2
1679909109606,305,2
1679909109613,306,2
1679909109620,308,2
1679909109628,307,2
1679909109635,307,2
1679909109643,306,2
1679909109650,303,2
1679909109657,303,2
1679909109665,304,2
1679909109672,301,2
1679909109680,302,2
1679909109687,305,2
1679909109694,307,2
1679909109702,308,2
1679909109709,307,2
1679909109717,306,2
1679909109724,305,2
1679909109731,304,2
1679909109739,300,2
1679909109746,301,2
1679909109754,300,2
1679909109761,304,2
1679909109769,306,2
1679909109776,306,2
1679909109783,307,2
1679909109791,307,2
1679909109798,307,2
1679909109806,307,2
1679909109813,306,2
1679909109820,304,2
1679909109828,300,2
1679909109835,303,2
1679909109843,302,2
1679909109850,303,2
1679909109857,304,2
1679909109865,306,2
1679909109872,307,2
1679909109880,307,2
1679909109887,308,2
1679909109894,306,2
1679909109902,305,2
1679909109909,303,2
1679909109917,301,2
1679909109924,301,2
1679909109932,303,2
1679909109939,306,2
1679909109946,307,2
1679909109954,307,2
1679909109961,306,2
1679909109969,305,2
1679909109976,305,2
1679909109983,303,2
1679909109991,297,2
1679909109998,300,2
1679909110006,303,2
1679909110013,306,2
1679909110020,307,2
1679909110028,308,2
1679909110035,309,2
1679909110043,308,2
1679909110050,307,2
1679909110057,305,2
1679909110065,305,2
1679909110072,301,2
1679909110080,301,2
1679909110087,304,2
1679909110094,301,2
1679909110102,302,2
1679909110109,306,2
1679909110117,307,2
1679909110124,307,2
1679909110132,307,2
1679909110139,308,2
1679909110146,307,2
1679909110154,305,2
1679909110161,305,2
1679909110169,305,2
1679909110176,304,2
1679909110183,305,2
1679909110191,305,2
1679909110198,306,2
1679909110206,306,2
1679909110213,306,2
1679909110220,305,2
1679909110228,303,2
1679909110235,303,2
1679909110243,304,2
1679909110250,307,2
1679909110258,307,2
1679909110265,308,2
1679909110272,307,2
1679909110280,306,2
1679909110287,304,2
1679909110295,302,2
1679909110302,302,2
1679909110309,304,2
1679909110317,305,2
1679909110324,306,2
1679909110332,307,2
1679909110339,307,2
1679909110346,307,2
1679909110354,305,2
1679909110361,302,2
1679909110369,301,2
1679909110376,304,2
1679909110383,303,2
1679909110391,304,2
1679909110398,305,2
1679909110406,307,2
1679909110413,308,2
1679909110421,308,2
1679909110428,307,2
1679909110435,304,2
1679909110443,303,2
1679909110450,304,2
1679909110458,304,2
1679909110465,305,2
1679909110472,306,2
1679909110480,306,2
1679909110487,306,2
1679909110495,307,2
1679909110502,307,2
1679909110509,305,2
1679909110517,305,2
1679909110524,304,2
1679909110532,303,2
1679909110539,304,2
1679909110546,305,2
1679909110554,307,2
1679909110561,306,2
1679909110569,307,2
1679909110576,308,2
1679909110584,307,2
1679909110591,306,2
1679909110598,303,2
1679909110606,304,2
1679909110613,305,2
1679909110621,302,2
1679909110628,301,2
1679909110635,305,2
1679909110643,308,2
1679909110650,309,2
1679909110658,309,2
1679909110665,307,2
1679909110672,306,2
1679909110680,306,2
1679909110687,305,2
1679909110695,304,2
1679909110702,303,2
1679909110710,304,2
1679909110717,306,2
1679909110724,307,2
1679909110732,307,2
1679909110739,307,2
1679909110746,305,2
1679909110754,303,2
1679909110761,303,2
1679909110769,302,2
1679909110776,302,2
1679909110784,304,2
1679909110791,304,2
1679909110798,305,2
1679909110806,306,2
1679909110813,307,2
1679909110821,307,2
1679909110828,307,2
1679909110835,305,2
1679909110843,300,2
1679909110850,299,2
1679909110858,304,2
1679909110865,306,2
1679909110873,306,2
1679909110881,307,2
1679909110887,308,2
1679909110895,308,2
1679909110902,307,2
1679909110909,307,2
1679909110917,305,2
1679909110924,303,2
1679909110932,302,2
1679909110939,305,2
1679909110947,307,2
1679909110954,306,2
1679909110961,308,2
1679909110969,305,2
1679909110976,304,2
1679909110984,306,2
1679909110991,307,2
1679909110998,307,2
1679909111006,303,2
1679909111013,304,2
1679909111021,305,2
1679909111028,303,2
1679909111035,304,2
1679909111043,307,2
1679909111050,306,2
1679909111058,305,2
1679909111065,303,2
1679909111072,305,2
1679909111080,306,2
1679909111087,305,2
1679909111095,306,2
1679909111102,307,2
1679909111110,305,2
1679909111117,304,2
1679909111124,305,2
1679909111132,305,2
1679909111139,303,2
1679909111147,302,2
1679909111154,304,2
1679909111161,305,2
1679909111169,305,2
1679909111176,306,2
1679909111184,306,2
1679909111191,304,2
1679909111198,302,2
1679909111206,303,2
1679909111213,302,2
1679909111221,305,2
1679909111228,308,2
1679909111236,307,2
1679909111243,306,2
1679909111250,306,2
1679909111258,307,2
1679909111265,306,2
1679909111273,304,2
1679909111280,304,2
1679909111287,305,2
1679909111295,306,2
1679909111302,305,2
1679909111310,305,2
1679909111317,304,2
1679909111324,306,2
1679909111332,306,2
1679909111339,306,2
1679909111347,305,2
1679909111354,305,2
1679909111361,303,2
1679909111369,302,2
1679909111376,302,2
1679909111384,304,2
1679909111391,306,2
1679909111399,303,2
1679909111406,304,2
1679909111413,304,2
1679909111421,304,2
1679909111428,306,2
1679909111436,306,2
1679909111443,305,2
1679909111450,305,2
1679909111458,305,2
1679909111465,306,2
1679909111473,305,2
1679909111480,303,2
1679909111487,302,2
1679909111495,301,2
1679909111502,302,2
1679909111510,304,2
1679909111517,305,2
1679909111524,305,2
1679909111532,308,2
1679909111539,308,2
1679909111547,307,2
1679909111554,306,2
1679909111562,305,2
1679909111569,304,2
1679909111576,306,2
1679909111584,306,2
1679909111591,306,2
1679909111599,304,2
1679909111606,304,2
1679909111613,305,2
1679909111621,307,2
1679909111628,308,2
1679909111636,306,2
1679909111643,305,2
1679909111650,305,2
1679909111658,303,2
1679909111665,305,2
1679909111673,306,2
1679909111680,305,2
1679909111687,306,2
1679909111695,307,2
1679909111702,306,2
1679909111710,304,2
1679909111717,300,2
1679909111724,304,2
1679909111732,305,2
1679909111739,304,2
1679909111747,303,2
1679909111754,306,2
1679909111761,306,2
1679909111769,306,2
1679909111776,305,2
1679909111784,305,2
1679909111791,303,2
1679909111799,303,2
1679909111806,303,2
1679909111813,305,2
1679909111821,305,2
1679909111828,306,2
1679909111836,306,2
1679909111843,306,2
1679909111850,305,2
1679909111858,305,2
1679909111865,305,2
1679909111873,305,2
1679909111880,303,2
1679909111887,305,2
1679909111895,308,2
1679909111902,308,2
1679909111910,308,2
1679909111917,309,2
1679909111925,306,2
1679909111932,303,2
1679909111939,306,2
1679909111947,306,2
1679909111954,304,2
1679909111962,306,2
1679909111969,307,2
1679909111976,308,2
1679909111984,305,2
1679909111991,305,2
1679909111999,304,2
1679909112006,304,2
1679909112013,306,2
1679909112021,307,2
1679909112028,309,2
1679909112036,310,2
1679909112043,309,2
1679909112050,308,2
1679909112058,305,2
1679909112065,305,2
1679909112073,303,2
1679909112080,302,2
1679909112087,304,2
1679909112095,304,2
1679909112102,305,2
1679909112110,306,2
1679909112117,306,2
1679909112125,306,2
1679909112132,307,2
1679909112139,305,2
1679909112147,304,2
1679909112154,304,2
1679909112162,303,2
1679909112169,302,2
1679909112176,303,2
1679909112184,302,2
1679909112191,302,2
1679909112199,304,2
1679909112206,304,2
1679909112213,304,2
1679909112221,305,2
1679909112228,306,2
1679909112236,305,2
1679909112243,304,2
1679909112251,303,2
1679909112258,305,2
1679909112265,306,2
1679909112273,307,2
1679909112280,308,2
1679909112288,307,2
1679909112295,307,2
1679909112302,306,2
1679909112310,305,2
1679909112317,302,2
1679909112325,304,2
1679909112332,305,2
1679909112339,303,2
1679909112347,304,2
1679909112354,304,2
1679909112362,305,2
1679909112369,305,2
1679909112376,304,2
1679909112384,303,2
1679909112391,303,2
1679909112399,303,2
1679909112406,304,2
1679909112413,306,2
1679909112421,306,2
1679909112428,304,2
1679909112436,304,2
1679909112443,305,2
1679909112451,303,2
1679909112458,303,2
1679909112465,303,2
1679909112473,305,2
1679909112480,305,2
1679909112488,303,2
1679909112495,306,2
1679909112502,308,2
1679909112510,308,2
1679909112517,307,2
1679909112525,308,2
1679909112532,308,2
1679909112539,307,2
1679909112547,304,2
1679909112554,303,2
1679909112562,303,2
1679909112569,304,2
1679909112576,304,2
1679909112584,307,2
1679909112591,308,2
1679909112599,309,2
1679909112606,309,2
1679909112614,308,2
1679909112621,307,2
1679909112628,306,2
1679909112636,307,2
1679909112643,305,2
1679909112651,303,2
1679909112658,303,2
1679909112665,303,2
1679909112673,301,2
1679909112680,305,2
1679909112688,307,2
1679909112695,307,2
1679909112702,307,2
1679909112710,307,2
1679909112717,307,2
1679909112725,305,2
1679909112732,305,2
1679909112739,305,2
1679909112747,302,2
1679909112754,299,2
1679909112762,303,2
1679909112769,305,2
1679909112776,307,2
1679909112784,307,2
1679909112791,307,2
1679909112799,307,2
1679909112806,305,2
1679909112814,302,2
1679909112821,302,2
1679909112828,305,2
1679909112836,307,2
1679909112843,308,2
1679909112851,307,2
1679909112858,306,2
1679909112865,303,2
1679909112873,304,2
1679909112880,304,2
1679909112888,301,2
1679909112895,303,2
1679909112903,306,2
1679909112910,308,2
1679909112917,307,2
1679909112925,306,2
1679909112932,308,2
1679909112940,308,2
1679909112947,308,2
1679909112954,307,2
1679909112962,305,2
1679909112969,303,2
1679909112977,306,2
1679909112984,304,2
1679909112991,304,2
1679909112999,305,2
1679909113006,306,2
1679909113014,305,2
1679909113021,305,2
1679909113028,303,2
1679909113036,305,2
1679909113043,307,2
1679909113051,307,2
1679909113058,307,2
1679909113065,307,2
1679909113073,305,2
1679909113080,302,2
1679909113088,302,2
1679909113095,306,2
1679909113103,307,2
1679909113110,307,2
1679909113117,306,2
1679909113125,306,2
1679909113132,305,2
1679909113140,305,2
1679909113147,304,2
1679909113154,304,2
1679909113162,305,2
1679909113169,302,2
1679909113177,304,2
1679909113184,306,2
1679909113191,306,2
1679909113199,305,2
1679909113206,305,2
1679909113214,307,2
1679909113221,307,2
1679909113228,306,2
1679909113236,305,2
1679909113243,304,2
1679909113251,306,2
1679909113258,308,2
1679909113265,306,2
1679909113273,307,2
1679909113280,308,2
1679909113288,307,2
1679909113295,307,2
1679909113303,305,2
1679909113310,305,2
1679909113317,304,2
1679909113325,304,2
1679909113332,305,2
1679909113340,306,2
1679909113347,304,2
1679909113354,305,2
1679909113362,304,2
1679909113369,303,2
1679909113377,303,2
1679909113384,300,2
1679909113391,303,2
1679909113399,304,2
1679909113406,305,2
1679909113414,306,2
1679909113421,307,2
1679909113428,305,2
1679909113436,304,2
1679909113443,305,2
1679909113451,306,2
1679909113458,305,2
1679909113466,305,2
1679909113473,305,2
1679909113480,306,2
1679909113488,305,2
1679909113495,304,2
1679909113503,304,2
1679909113510,304,2
1679909113517,304,2
1679909113525,305,2
1679909113532,307,2
1679909113540,309,2
1679909113547,308,2
1679909113554,307,2
1679909113562,307,2
1679909113569,305,2
1679909113577,305,2
1679909113584,304,2
1679909113591,302,2
1679909113599,304,2
1679909113606,306,2
1679909113614,305,2
1679909113621,303,2
1679909113629,304,2
1679909113636,305,2
1679909113643,306,2
1679909113651,305,2
1679909113658,305,2
1679909113666,304,2
1679909113673,305,2
1679909113680,304,2
1679909113688,304,2
1679909113695,303,2
1679909113703,305,2
1679909113710,306,2
1679909113717,305,2
1679909113725,305,2
1679909113732,304,2
1679909113740,303,2
1679909113747,304,2
1679909113754,304,2
1679909113762,304,2
1679909113769,306,2
1679909113777,305,2
1679909113784,306,2
1679909113792,307,2
1679909113799,306,2
1679909113806,305,2
1679909113814,304,2
1679909113821,304,2
1679909113829,305,2
1679909113836,302,2
1679909113843,304,2
1679909113851,306,2
1679909113858,306,2
1679909113866,306,2
1679909113873,306,2
1679909113880,306,2
1679909113888,305,2
1679909113895,304,2
1679909113903,303,2
1679909113910,303,2
1679909113918,302,2
1679909113925,303,2
1679909113932,304,2
1679909113940,305,2
1679909113947,306,2
1679909113955,306,2
1679909113962,306,2
1679909113969,306,2
1679909113977,306,2
1679909113984,304,2
1679909113992,303,2
1679909113999,302,2
1679909114006,300,2
1679909114014,304,2
1679909114021,306,2
1679909114029,305,2
1679909114036,306,2
1679909114043,306,2
1679909114051,306,2
1679909114058,306,2
1679909114066,306,2
1679909114073,305,2
1679909114080,304,2
1679909114088,304,2
1679909114095,304,2
1679909114103,304,2
1679909114110,305,2
1679909114118,304,2
1679909114125,305,2
1679909114132,306,2
1679909114140,306,2
1679909114147,303,2
1679909114155,304,2
1679909114162,302,2
1679909114169,304,2
1679909114177,306,2
1679909114184,306,2
1679909114192,306,2
1679909114199,306,2
1679909114206,305,2
1679909114214,304,2
1679909114221,303,2
1679909114229,303,2
1679909114236,302,2
1679909114243,303,2
1679909114251,305,2
1679909114258,307,2
1679909114266,306,2
1679909114273,304,2
1679909114281,306,2
1679909114288,306,2
1679909114295,305,2
1679909114303,304,2
1679909114310,303,2
1679909114318,304,2
1679909114325,305,2
1679909114332,306,2
1679909114340,307,2
1679909114347,307,2
1679909114355,307,2
1679909114362,306,2
1679909114369,304,2
1679909114377,303,2
1679909114384,303,2
1679909114392,305,2
1679909114399,307,2
1679909114407,307,2
1679909114414,308,2
1679909114421,308,2
1679909114429,307,2
1679909114436,306,2
1679909114443,304,2
1679909114451,303,2
1679909114458,304,2
1679909114466,304,2
1679909114473,305,2
1679909114481,305,2
1679909114488,304,2
1679909114495,305,2
1679909114503,305,2
1679909114510,302,2
1679909114518,305,2
1679909114525,304,2
1679909114532,306,2
1679909114540,306,2
1679909114547,306,2
1679909114555,306,2
1679909114562,304,2
1679909114569,303,2
1679909114577,303,2
1679909114584,302,2
1679909114592,300,2
1679909114599,303,2
1679909114607,304,2
1679909114614,305,2
1679909114621,307,2
1679909114629,307,2
1679909114636,306,2
1679909114644,303,2
1679909114651,303,2
1679909114658,302,2
1679909114666,303,2
1679909114673,303,2
1679909114681,303,2
1679909114688,304,2
1679909114695,303,2
1679909114703,303,2
1679909114710,305,2
1679909114718,306,2
1679909114725,306,2
1679909114732,305,2
1679909114740,305,2
1679909114747,305,2
1679909114755,305,2
1679909114762,304,2
1679909114769,302,2
1679909114777,304,2
1679909114784,305,2
1679909114792,304,2
1679909114799,305,2
1679909114807,306,2
1679909114814,307,2
1679909114821,306,2
1679909114829,306,2
1679909114836,306,2
1679909114844,306,2
1679909114851,303,2
1679909114858,303,2
1679909114866,302,2
1679909114873,303,2
1679909114881,304,2
1679909114888,305,2
1679909114895,305,2
1679909114903,307,2
1679909114910,306,2
1679909114918,306,2
1679909114925,306,2
1679909114932,306,2
1679909114940,305,2
1679909114947,303,2
1679909114955,305,2
1679909114962,304,2
1679909114969,306,2
1679909114977,306,2
1679909114984,304,2
1679909114992,303,2
1679909114999,305,2
1679909115007,305,2
1679909115014,306,2
1679909115021,306,2
1679909115029,304,2
1679909115036,304,2
1679909115044,304,2
1679909115051,303,2
1679909115058,305,2
1679909115066,306,2
1679909115073,305,2
1679909115081,304,2
1679909115088,304,2
1679909115095,303,2
1679909115103,303,2
1679909115110,304,2
1679909115118,305,2
1679909115125,305,2
1679909115133,306,2
1679909115140,306,2
1679909115147,306,2
1679909115155,306,2
1679909115162,306,2
1679909115170,304,2
1679909115177,305,2
1679909115184,307,2
1679909115192,306,2
1679909115199,305,2
1679909115207,307,2
1679909115214,307,2
1679909115221,307,2
1679909115229,307,2
1679909115236,306,2
1679909115244,304,2
1679909115251,305,2
1679909115259,303,2
1679909115266,304,2
1679909115273,304,2
1679909115281,304,2
1679909115288,306,2
1679909115295,307,2
1679909115303,307,2
1679909115310,307,2
1679909115318,307,2
1679909115325,306,2
1679909115333,305,2
1679909115340,305,2
1679909115347,307,2
1679909115355,305,2
1679909115362,303,2
1679909115370,305,2
1679909115377,305,2
1679909115384,305,2
1679909115392,305,2
1679909115399,303,2
1679909115407,305,2
1679909115414,305,2
1679909115421,303,2
1679909115429,303,2
1679909115436,306,2
1679909115444,307,2
1679909115451,306,2
1679909115459,307,2
1679909115466,305,2
1679909115473,304,2
1679909115481,306,2
1679909115488,304,2
1679909115496,305,2
1679909115503,305,2
1679909115510,305,2
1679909115518,305,2
1679909115525,307,2
1679909115533,308,2
1679909115540,305,2
1679909115547,305,2
1679909115555,305,2
1679909115562,307,2
1679909115570,307,2
1679909115577,307,2
1679909115584,307,2
1679909115592,306,2
1679909115599,305,2
1679909115607,304,2
1679909115614,304,2
1679909115621,304,2
1679909115629,301,2
1679909115636,303,2
1679909115644,305,2
1679909115651,306,2
1679909115659,306,2
1679909115666,306,2
1679909115673,306,2
1679909115681,304,2
1679909115688,303,2
1679909115696,304,2
1679909115703,304,2
1679909115710,303,2
1679909115718,303,2
1679909115725,304,2
1679909115733,305,2
1679909115740,307,2
1679909115747,307,2
1679909115755,306,2
1679909115762,303,2
1679909115770,302,2
1679909115777,304,2
1679909115785,306,2
1679909115792,304,2
1679909115799,304,2
1679909115807,304,2
1679909115814,305,2
1679909115822,305,2
1679909115829,306,2
1679909115836,305,2
1679909115844,303,2
1679909115851,305,2
1679909115859,306,2
1679909115866,307,2
1679909115873,307,2
1679909115881,304,2
1679909115888,303,2
1679909115896,303,2
1679909115903,304,2
1679909115910,304,2
1679909115918,305,2
1679909115925,305,2
1679909115933,307,2
1679909115940,306,2
1679909115947,305,2
1679909115955,305,2
1679909115962,303,2
1679909115970,304,2
1679909115977,306,2
1679909115985,305,2
1679909115992,304,2
1679909115999,306,2
1679909116007,307,2
1679909116014,307,2
1679909116022,307,2
1679909116029,305,2
1679909116036,302,2
1679909116044,303,2
1679909116051,304,2
1679909116059,304,2
1679909116066,305,2
1679909116073,306,2
1679909116081,306,2
1679909116088,308,2
1679909116096,307,2
1679909116103,306,2
1679909116110,305,2
1679909116118,303,2
1679909116125,305,2
1679909116133,306,2
1679909116140,306,2
1679909116148,307,2
1679909116155,307,2
1679909116162,307,2
1679909116170,305,2
1679909116177,305,2
1679909116185,306,2
1679909116192,307,2
1679909116199,306,2
1679909116207,303,2
1679909116214,304,2
1679909116222,303,2
1679909116229,306,2
1679909116236,306,2
1679909116244,306,2
1679909116251,307,2
1679909116259,308,2
1679909116266,308,2
1679909116274,306,2
1679909116281,305,2
1679909116288,305,2
1679909116296,301,2
1679909116303,303,2
1679909116311,304,2
1679909116318,305,2
1679909116325,307,2
1679909116333,308,2
1679909116340,307,2
1679909116348,307,2
1679909116355,307,2
1679909116362,306,2
1679909116370,304,2
1679909116377,304,2
1679909116385,305,2
1679909116392,302,2
1679909116399,303,2
1679909116407,304,2
1679909116414,306,2
1679909116422,306,2
1679909116429,305,2
1679909116436,307,2
1679909116444,307,2
1679909116451,307,2
1679909116459,307,2
1679909116466,306,2
1679909116474,303,2
1679909116481,303,2
1679909116488,302,2
1679909116496,305,2
1679909116503,306,2
1679909116511,305,2
1679909116518,306,2
1679909116525,307,2
1679909116533,308,2
1679909116540,308,2
1679909116548,307,2
1679909116555,305,2
1679909116562,306,2
1679909116570,307,2
1679909116577,305,2
1679909116585,305,2
1679909116592,307,2
1679909116599,306,2
1679909116607,307,2
1679909116614,305,2
1679909116622,307,2
1679909116629,307,2
1679909116637,306,2
1679909116644,304,2
1679909116651,303,2
1679909116659,304,2
1679909116666,304,2
1679909116674,304,2
1679909116681,305,2
1679909116688,305,2
1679909116696,306,2
1679909116703,308,2
1679909116711,307,2
1679909116718,306,2
1679909116725,304,2
1679909116733,303,2
1679909116740,303,2
1679909116748,301,2
1679909116755,302,2
1679909116762,305,2
1679909116770,307,2
1679909116777,308,2
1679909116785,307,2
1679909116792,306,2
1679909116799,303,2
1679909116807,304,2
1679909116814,303,2
1679909116822,301,2
1679909116829,304,2
1679909116837,303,2
1679909116844,304,2
1679909116851,303,2
1679909116859,304,2
1679909116866,306,2
1679909116874,307,2
1679909116881,305,2
1679909116888,305,2
1679909116896,306,2
1679909116903,305,2
1679909116911,301,2
1679909116918,302,2
1679909116925,304,2
1679909116933,304,2
1679909116940,305,2
1679909116948,306,2
1679909116955,306,2
1679909116962,304,2
1679909116970,305,2
1679909116977,305,2
1679909116985,304,2
1679909116992,303,2
1679909117000,304,2
1679909117007,306,2
1679909117014,304,2
1679909117022,305,2
1679909117029,304,2
1679909117037,304,2
1679909117044,305,2
1679909117051,305,2
1679909117059,306,2
1679909117066,305,2
1679909117074,305,2
1679909117081,306,2
1679909117088,307,2
1679909117096,307,2
1679909117103,305,2
1679909117111,305,2
1679909117118,304,2
1679909117125,305,2
1679909117133,307,2
1679909117140,307,2
1679909117148,307,2
1679909117155,307,2
1679909117162,307,2
1679909117170,306,2
1679909117177,305,2
1679909117185,305,2
1679909117192,304,2
1679909117200,304,2
1679909117207,304,2
1679909117214,304,2
1679909117222,304,2
1679909117229,304,2
1679909117237,304,2
1679909117244,304,2
1679909117251,304,2
1679909117259,302,2
1679909117266,300,2
1679909117274,302,2
1679909117281,302,2
1679909117288,303,2
1679909117296,305,2
1679909117303,305,2
1679909117311,306,2
1679909117318,306,2
1679909117326,306,2
1679909117333,308,2
1679909117340,308,2
1679909117348,308,2
1679909117355,307,2
1679909117363,305,2
1679909117370,302,2
1679909117377,303,2
1679909117385,303,2
1679909117392,304,2
1679909117400,304,2
1679909117407,308,2
1679909117414,309,2
1679909117422,309,2
1679909117429,309,2
1679909117437,309,2
1679909117444,306,2
1679909117451,305,2
1679909117459,304,2
1679909117466,306,2
1679909117474,307,2
1679909117481,305,2
1679909117489,307,2
1679909117496,308,2
1679909117503,307,2
1679909117511,307,2
1679909117518,307,2
1679909117526,304,2
1679909117533,305,2
1679909117540,304,2
1679909117548,303,2
1679909117555,303,2
1679909117563,306,2
1679909117570,306,2
1679909117577,307,2
1679909117585,307,2
1679909117592,306,2
1679909117600,306,2
1679909117607,305,2
1679909117614,304,2
1679909117622,305,2
1679909117629,305,2
1679909117637,305,2
1679909117644,304,2
1679909117652,305,2
1679909117659,302,2
1679909117666,304,2
1679909117674,303,2
1679909117681,305,2
1679909117689,306,2
1679909117696,307,2
1679909117703,308,2
1679909117711,306,2
1679909117718,306,2
1679909117725,305,2
1679909117733,303,2
1679909117740,303,2
1679909117748,305,2
1679909117755,307,2
1679909117763,306,2
1679909117770,303,2
1679909117777,305,2
1679909117785,304,2
1679909117792,304,2
1679909117800,305,2
1679909117807,305,2
1679909117814,305,2
1679909117822,304,2
1679909117829,307,2
1679909117837,307,2
1679909117844,306,2
1679909117852,304,2
1679909117859,303,2
1679909117866,302,2
1679909117874,302,2
1679909117881,305,2
1679909117889,306,2
1679909117896,308,2
1679909117903,306,2
1679909117911,304,2
1679909117918,301,2
1679909117926,305,2
1679909117933,306,2
1679909117940,303,2
1679909117948,305,2
1679909117955,307,2
1679909117963,306,2
1679909117970,307,2
1679909117977,307,2
1679909117985,302,2
1679909117992,305,2
1679909118000,306,2
1679909118007,306,2
1679909118015,307,2
1679909118022,305,2
1679909118029,302,2
1679909118037,304,2
1679909118044,307,2
1679909118052,302,2
1679909118059,305,2
1679909118066,306,2
1679909118074,308,2
1679909118081,306,2
1679909118089,307,2
1679909118096,306,2
1679909118103,303,2
1679909118111,301,2
1679909118118,304,2
1679909118126,304,2
1679909118133,303,2
1679909118140,305,2
1679909118148,305,2
1679909118155,305,2
1679909118163,305,2
1679909118170,307,2
1679909118178,305,2
1679909118185,304,2
1679909118192,306,2
1679909118200,305,2
1679909118207,306,2
1679909118215,304,2
1679909118222,304,2
1679909118229,304,2
1679909118237,303,2
1679909118244,304,2
1679909118252,305,2
1679909118259,304,2
1679909118266,304,2
1679909118274,306,2
1679909118281,306,2
1679909118289,305,2
1679909118296,303,2
1679909118303,305,2
1679909118311,304,2
1679909118318,303,2
1679909118326,304,2
1679909118333,306,2
1679909118341,305,2
1679909118348,302,2
1679909118355,304,2
1679909118363,304,2
1679909118370,306,2
1679909118378,306,2
1679909118385,307,2
1679909118392,307,2
1679909118400,307,2
1679909118407,306,2
1679909118415,306,2
1679909118422,306,2
1679909118429,305,2
1679909118437,303,2
1679909118444,302,2
1679909118452,300,2
1679909118459,301,2
1679909118466,301,2
1679909118474,302,2
1679909118481,304,2
1679909118489,304,2
1679909118496,306,2
1679909118504,306,2
1679909118511,305,2
1679909118518,305,2
1679909118526,306,2
1679909118533,306,2
1679909118541,304,2
1679909118548,303,2
1679909118555,303,2
1679909118563,304,2
1679909118570,304,2
1679909118578,305,2
1679909118585,304,2
1679909118592,305,2
1679909118600,304,2
1679909118607,303,2
1679909118615,302,2
1679909118622,304,2
1679909118629,304,2
1679909118637,304,2
1679909118644,305,2
1679909118652,304,2
1679909118659,304,2
1679909118667,305,2
1679909118674,305,2
1679909118681,304,2
1679909118689,304,2
1679909118696,305,2
1679909118704,306,2
1679909118711,304,2
1679909118718,305,2
1679909118726,305,2
1679909118733,304,2
1679909118741,303,2
1679909118748,304,2
1679909118755,306,2
1679909118763,306,2
1679909118770,307,2
1679909118778,307,2
1679909118785,306,2
1679909118793,306,2
1679909118800,305,2
1679909118807,302,2
1679909118815,302,2
1679909118822,305,2
1679909118830,306,2
1679909118837,306,2
1679909118844,305,2
1679909118852,306,2
1679909118859,308,2
1679909118867,306,2
1679909118874,305,2
1679909118881,304,2
1679909118889,302,2
1679909118896,300,2
1679909118904,305,2
1679909118911,307,2
1679909118918,307,2
1679909118926,308,2
1679909118933,307,2
1679909118941,307,2
1679909118948,306,2
1679909118955,304,2
1679909118963,304,2
1679909118970,302,2
1679909118978,302,2
1679909118985,304,2
1679909118993,304,2
1679909119000,304,2
1679909119007,306,2
1679909119015,306,2
1679909119022,306,2
1679909119030,305,2
1679909119037,305,2
1679909119044,302,2
1679909119052,301,2
1679909119059,302,2
1679909119067,305,2
1679909119074,308,2
1679909119081,308,2
1679909119089,308,2
1679909119096,307,2
1679909119104,307,2
1679909119111,304,2
1679909119119,300,2
1679909119126,298,2
1679909119133,302,2
1679909119141,306,2
1679909119148,308,2
1679909119155,309,2
1679909119163,309,2
1679909119170,309,2
1679909119178,308,2
1679909119185,307,2
1679909119193,306,2
1679909119200,305,2
1679909119207,302,2
1679909119215,297,2
1679909119222,300,2
1679909119230,303,2
1679909119237,303,2
1679909119244,303,2
1679909119252,304,2
1679909119259,307,2
1679909119267,307,2
1679909119274,306,2
1679909119281,307,2
1679909119289,306,2
1679909119296,305,2
1679909119304,304,2
1679909119311,304,2
1679909119319,304,2
1679909119326,303,2
1679909119333,305,2
1679909119341,307,2
1679909119348,307,2
1679909119356,306,2
1679909119363,306,2
1679909119370,307,2
1679909119378,307,2
1679909119385,305,2
1679909119393,302,2
1679909119400,303,2
1679909119407,305,2
1679909119415,304,2
1679909119422,304,2
1679909119430,304,2
1679909119437,307,2
1679909119444,308,2
1679909119452,308,2
1679909119459,308,2
1679909119467,306,2
1679909119474,304,2
1679909119482,305,2
1679909119489,303,2
1679909119496,302,2
1679909119504,303,2
1679909119511,304,2
1679909119519,305,2
1679909119526,303,2
1679909119533,305,2
1679909119541,308,2
1679909119548,308,2
1679909119556,309,2
1679909119563,308,2
1679909119570,308,2
1679909119578,307,2
1679909119585,304,2
1679909119593,300,2
1679909119600,303,2
1679909119607,305,2
1679909119615,306,2
1679909119622,306,2
1679909119630,307,2
1679909119637,308,2
1679909119644,306,2
1679909119652,307,2
1679909119659,307,2
1679909119667,306,2
1679909119674,304,2
1679909119682,302,2
1679909119689,303,2
1679909119696,306,2
1679909119704,305,2
1679909119711,306,2
1679909119719,305,2
1679909119726,306,2
1679909119733,307,2
1679909119741,307,2
1679909119748,304,2
1679909119756,306,2
1679909119763,307,2
1679909119770,306,2
1679909119778,304,2
1679909119785,304,2
1679909119793,303,2
1679909119800,304,2
1679909119807,303,2
1679909119815,304,2
1679909119822,303,2
1679909119830,306,2
1679909119837,306,2
1679909119844,306,2
1679909119852,306,2
1679909119859,306,2
1679909119867,305,2
1679909119874,305,2
1679909119882,306,2
1679909119889,304,2
1679909119896,305,2
1679909119904,305,2
1679909119911,305,2
1679909119919,306,2
1679909119926,307,2
1679909119933,307,2
1679909119941,305,2
1679909119948,304,2
1679909119956,304,2
1679909119963,304,2
1679909119970,304,2
1679909119978,304,2
1679909119985,306,2
1679909119993,306,2
1679909120000,307,2
1679909120008,307,2
1679909120015,307,2
1679909120022,306,2
1679909120030,305,2
1679909120037,305,2
1679909120045,305,2
1679909120052,304,2
1679909120059,304,2
1679909120067,305,2
1679909120074,305,2
1679909120082,306,2
1679909120089,307,2
1679909120096,307,2
1679909120104,307,2
1679909120111,306,2
1679909120119,304,2
1679909120126,304,2
1679909120133,305,2
1679909120141,304,2
1679909120148,305,2
1679909120156,303,2
1679909120163,303,2
1679909120170,306,2
1679909120178,306,2
1679909120185,308,2
1679909120193,307,2
1679909120200,305,2
1679909120208,305,2
1679909120215,306,2
1679909120222,305,2
1679909120230,304,2
1679909120237,304,2
1679909120245,307,2
1679909120252,308,2
1679909120259,309,2
1679909120267,308,2
1679909120274,306,2
1679909120282,306,2
1679909120289,305,2
1679909120296,304,2
1679909120304,303,2
1679909120311,301,2
1679909120319,301,2
1679909120326,304,2
1679909120334,304,2
1679909120341,306,2
1679909120348,307,2
1679909120356,306,2
1679909120363,304,2
1679909120371,305,2
1679909120378,303,2
1679909120385,301,2
1679909120393,305,2
1679909120400,304,2
1679909120408,306,2
1679909120415,308,2
1679909120422,308,2
1679909120430,305,2
1679909120437,303,2
1679909120445,304,2
1679909120452,306,2
1679909120459,306,2
1679909120467,304,2
1679909120474,305,2
1679909120482,305,2
1679909120489,305,2
1679909120496,305,2
1679909120504,305,2
1679909120511,305,2
1679909120519,306,2
1679909120526,305,2
1679909120534,304,2
1679909120541,303,2
1679909120548,304,2
1679909120556,304,2
1679909120563,302,2
1679909120571,306,2
1679909120578,307,2
1679909120585,308,2
1679909120593,307,2
1679909120600,304,2
1679909120608,302,2
1679909120615,302,2
1679909120622,304,2
1679909120630,304,2
1679909120637,304,2
1679909120645,304,2
1679909120652,304,2
1679909120659,305,2
1679909120667,305,2
1679909120674,304,2
1679909120682,302,2
1679909120689,301,2
1679909120696,300,2
1679909120704,302,2
1679909120711,302,2
1679909120719,304,2
1679909120726,305,2
1679909120734,307,2
1679909120741,308,2
1679909120748,308,2
1679909120756,307,2
1679909120763,306,2
1679909120771,304,2
1679909120778,299,2
1679909120786,299,2
1679909120793,303,2
1679909120800,305,2
1679909120808,306,2
1679909120815,307,2
1679909120822,307,2
1679909120830,306,2
1679909120837,305,2
1679909120845,302,2
1679909120852,300,2
1679909120860,302,2
1679909120867,304,2
1679909120874,304,2
1679909120882,306,2
1679909120889,307,2
1679909120897,308,2
1679909120904,308,2
1679909120911,307,2
1679909120919,306,2
1679909120926,304,2
1679909120934,305,2
1679909120941,304,2
1679909120948,302,2
1679909120956,302,2
1679909120963,297,2
1679909120971,301,2
1679909120978,303,2
1679909120985,305,2
1679909120993,306,2
1679909121000,307,2
1679909121008,307,2
1679909121015,307,2
1679909121022,305,2
1679909121030,303,2
1679909121037,303,2
1679909121045,303,2
1679909121052,304,2
1679909121060,305,2
1679909121067,304,2
1679909121074,305,2
1679909121082,305,2
1679909121089,305,2
1679909121097,304,2
1679909121104,303,2
1679909121111,304,2
1679909121119,307,2
1679909121126,307,2
1679909121134,307,2
1679909121141,307,2
1679909121148,307,2
1679909121156,306,2
1679909121163,305,2
1679909121171,303,2
1679909121178,298,2
1679909121185,301,2
1679909121193,303,2
1679909121200,305,2
1679909121208,308,2
1679909121215,308,2
1679909121223,307,2
1679909121230,306,2
1679909121237,308,2
1679909121245,308,2
1679909121252,307,2
1679909121260,306,2
1679909121267,306,2
1679909121274,304,2
1679909121282,302,2
1679909121289,304,2
1679909121297,305,2
1679909121304,306,2
1679909121311,307,2
1679909121319,307,2
1679909121326,306,2
1679909121334,307,2
1679909121341,305,2
1679909121348,304,2
1679909121356,305,2
1679909121363,304,2
1679909121371,300,2
1679909121378,303,2
1679909121386,304,2
1679909121393,306,2
1679909121400,308,2
1679909121408,308,2
1679909121415,308,2
1679909121423,308,2
1679909121430,304,2
1679909121437,306,2
1679909121445,304,2
1679909121452,304,2
1679909121460,308,2
1679909121467,310,2
1679909121474,310,2
1679909121482,308,2
1679909121489,307,2
1679909121497,309,2
1679909121504,308,2
1679909121512,304,2
1679909121519,305,2
1679909121526,305,2
1679909121534,304,2
1679909121541,306,2
1679909121549,307,2
1679909121556,308,2
1679909121563,310,2
1679909121571,311,2
1679909121578,310,2
1679909121586,309,2
1679909121593,306,2
