1679211855885,297,2
1679211855892,299,2
1679211855899,300,2
1679211855906,297,2
1679211855914,293,2
1679211855921,295,2
1679211855929,298,2
1679211855936,300,2
1679211855944,299,2
1679211855951,295,2
1679211855958,295,2
1679211855966,297,2
1679211855973,299,2
1679211855981,301,2
1679211855988,300,2
1679211855995,293,2
1679211856003,292,2
1679211856010,298,2
1679211856018,300,2
1679211856025,298,2
1679211856032,297,2
1679211856040,299,2
1679211856047,301,2
1679211856055,301,2
1679211856062,300,2
1679211856069,295,2
1679211856077,294,2
1679211856084,291,2
1679211856092,295,2
1679211856099,299,2
1679211856107,298,2
1679211856114,301,2
1679211856121,301,2
1679211856129,303,2
1679211856136,303,2
1679211856144,302,2
1679211856151,298,2
1679211856158,297,2
1679211856166,298,2
1679211856173,296,2
1679211856181,294,2
1679211856188,296,2
1679211856195,300,2
1679211856203,301,2
1679211856210,300,2
1679211856218,297,2
1679211856225,295,2
1679211856232,300,2
1679211856240,300,2
1679211856247,298,2
1679211856255,296,2
1679211856262,296,2
1679211856270,300,2
1679211856277,302,2
1679211856284,300,2
1679211856292,296,2
1679211856299,296,2
1679211856307,297,2
1679211856314,299,2
1679211856321,298,2
1679211856329,298,2
1679211856336,297,2
1679211856344,298,2
1679211856351,300,2
1679211856358,300,2
1679211856366,298,2
1679211856375,297,2
1679211856381,297,2
1679211856388,298,2
1679211856395,298,2
1679211856403,296,2
1679211856410,296,2
1679211856418,297,2
1679211856425,299,2
1679211856433,300,2
1679211856440,296,2
1679211856447,296,2
1679211856455,298,2
1679211856462,299,2
1679211856470,299,2
1679211856477,296,2
1679211856484,297,2
1679211856492,299,2
1679211856499,299,2
1679211856507,298,2
1679211856514,296,2
1679211856521,297,2
1679211856529,298,2
1679211856536,299,2
1679211856544,299,2
1679211856551,299,2
1679211856558,299,2
1679211856566,299,2
1679211856573,299,2
1679211856581,299,2
1679211856588,297,2
1679211856596,297,2
1679211856603,296,2
1679211856610,296,2
1679211856618,296,2
1679211856625,294,2
1679211856633,295,2
1679211856640,295,2
1679211856647,295,2
1679211856655,294,2
1679211856662,298,2
1679211856670,300,2
1679211856677,301,2
1679211856684,301,2
1679211856692,300,2
1679211856699,299,2
1679211856707,299,2
1679211856714,297,2
1679211856722,298,2
1679211856729,298,2
1679211856736,297,2
1679211856744,297,2
1679211856751,299,2
1679211856759,300,2
1679211856766,301,2
1679211856773,300,2
1679211856781,300,2
1679211856788,301,2
1679211856796,301,2
1679211856803,301,2
1679211856810,299,2
1679211856818,294,2
1679211856825,296,2
1679211856833,299,2
1679211856840,301,2
1679211856847,297,2
1679211856855,299,2
1679211856862,298,2
1679211856870,301,2
1679211856877,302,2
1679211856884,301,2
1679211856892,299,2
1679211856899,300,2
1679211856907,298,2
1679211856914,299,2
1679211856922,296,2
1679211856929,292,2
1679211856936,296,2
1679211856944,299,2
1679211856951,301,2
1679211856959,299,2
1679211856966,299,2
1679211856973,300,2
1679211856981,301,2
1679211856988,296,2
1679211856996,297,2
1679211857003,298,2
1679211857010,299,2
1679211857018,297,2
1679211857025,294,2
1679211857033,298,2
1679211857040,300,2
1679211857048,302,2
1679211857055,301,2
1679211857062,299,2
1679211857070,299,2
1679211857077,298,2
1679211857084,298,2
1679211857092,298,2
1679211857099,294,2
1679211857107,295,2
1679211857114,299,2
1679211857122,300,2
1679211857129,301,2
1679211857136,299,2
1679211857144,297,2
1679211857151,299,2
1679211857159,299,2
1679211857166,300,2
1679211857173,301,2
1679211857181,299,2
1679211857188,296,2
1679211857196,295,2
1679211857203,295,2
1679211857211,295,2
1679211857218,297,2
1679211857225,299,2
1679211857233,301,2
1679211857240,301,2
1679211857248,300,2
1679211857255,300,2
1679211857262,300,2
1679211857270,298,2
1679211857277,297,2
1679211857285,297,2
1679211857292,294,2
1679211857299,295,2
1679211857307,294,2
1679211857314,297,2
1679211857322,296,2
1679211857329,298,2
1679211857336,300,2
1679211857344,301,2
1679211857351,302,2
1679211857359,301,2
1679211857366,300,2
1679211857373,297,2
1679211857381,295,2
1679211857388,295,2
1679211857396,297,2
1679211857403,295,2
1679211857411,295,2
1679211857418,297,2
1679211857425,299,2
1679211857433,302,2
1679211857440,302,2
1679211857448,300,2
1679211857455,299,2
1679211857462,299,2
1679211857470,297,2
1679211857477,298,2
1679211857485,295,2
1679211857492,294,2
1679211857499,297,2
1679211857507,299,2
1679211857514,298,2
1679211857522,298,2
1679211857529,297,2
1679211857536,297,2
1679211857544,299,2
1679211857551,300,2
1679211857559,298,2
1679211857566,295,2
1679211857574,296,2
1679211857581,300,2
1679211857588,299,2
1679211857596,301,2
1679211857603,298,2
1679211857611,299,2
1679211857618,300,2
1679211857625,299,2
1679211857633,299,2
1679211857640,296,2
1679211857648,299,2
1679211857655,300,2
1679211857662,300,2
1679211857670,298,2
1679211857677,296,2
1679211857685,297,2
1679211857692,301,2
1679211857699,302,2
1679211857707,300,2
1679211857714,297,2
1679211857722,297,2
1679211857729,297,2
1679211857736,299,2
1679211857744,297,2
1679211857751,297,2
1679211857759,299,2
1679211857766,299,2
1679211857774,299,2
1679211857781,298,2
1679211857788,299,2
1679211857796,300,2
1679211857803,299,2
1679211857811,296,2
1679211857818,296,2
1679211857825,297,2
1679211857833,300,2
1679211857840,299,2
1679211857848,298,2
1679211857855,297,2
1679211857862,299,2
1679211857870,297,2
1679211857877,297,2
1679211857885,297,2
1679211857892,297,2
1679211857900,296,2
1679211857907,299,2
1679211857914,301,2
1679211857922,300,2
1679211857929,298,2
1679211857936,295,2
1679211857944,297,2
1679211857951,296,2
1679211857959,298,2
1679211857966,296,2
1679211857974,298,2
1679211857981,300,2
1679211857988,300,2
1679211857996,298,2
1679211858003,293,2
1679211858011,295,2
1679211858018,298,2
1679211858026,299,2
1679211858033,297,2
1679211858040,297,2
1679211858048,297,2
1679211858055,299,2
1679211858062,300,2
1679211858070,298,2
1679211858077,296,2
1679211858085,294,2
1679211858092,296,2
1679211858099,295,2
1679211858107,296,2
1679211858114,300,2
1679211858122,302,2
1679211858129,300,2
1679211858137,299,2
1679211858144,299,2
1679211858151,298,2
1679211858159,296,2
1679211858166,298,2
1679211858174,298,2
1679211858181,297,2
1679211858189,296,2
1679211858196,298,2
1679211858203,295,2
1679211858211,296,2
1679211858218,297,2
1679211858226,297,2
1679211858233,297,2
1679211858240,298,2
1679211858248,300,2
1679211858255,301,2
1679211858263,300,2
1679211858270,296,2
1679211858277,297,2
1679211858285,294,2
1679211858292,297,2
1679211858300,296,2
1679211858307,296,2
1679211858314,297,2
1679211858322,300,2
1679211858329,299,2
1679211858337,299,2
1679211858344,300,2
1679211858351,299,2
1679211858359,298,2
1679211858366,298,2
1679211858374,299,2
1679211858381,300,2
1679211858389,297,2
1679211858396,295,2
1679211858403,296,2
1679211858411,296,2
1679211858418,299,2
1679211858426,299,2
1679211858433,295,2
1679211858440,297,2
1679211858448,299,2
1679211858455,299,2
1679211858463,298,2
1679211858470,297,2
1679211858477,300,2
1679211858485,297,2
1679211858492,294,2
1679211858500,296,2
1679211858507,298,2
1679211858514,298,2
1679211858522,299,2
1679211858529,300,2
1679211858537,298,2
1679211858544,300,2
1679211858551,301,2
1679211858559,300,2
1679211858566,296,2
1679211858574,298,2
1679211858581,300,2
1679211858589,297,2
1679211858596,294,2
1679211858603,294,2
1679211858611,299,2
1679211858618,301,2
1679211858626,301,2
1679211858633,301,2
1679211858640,301,2
1679211858648,299,2
1679211858655,296,2
1679211858663,295,2
1679211858670,293,2
1679211858677,293,2
1679211858685,296,2
1679211858692,299,2
1679211858700,301,2
1679211858707,301,2
1679211858714,302,2
1679211858722,302,2
1679211858729,301,2
1679211858737,300,2
1679211858744,298,2
1679211858751,294,2
1679211858759,292,2
1679211858766,296,2
1679211858774,298,2
1679211858781,298,2
1679211858789,298,2
1679211858796,301,2
1679211858803,301,2
1679211858811,300,2
1679211858818,297,2
1679211858826,297,2
1679211858833,297,2
1679211858840,297,2
1679211858848,296,2
1679211858855,300,2
1679211858863,301,2
1679211858870,301,2
1679211858877,299,2
1679211858885,300,2
1679211858892,299,2
1679211858900,298,2
1679211858907,299,2
1679211858914,299,2
1679211858922,295,2
1679211858929,296,2
1679211858937,301,2
1679211858944,299,2
1679211858952,298,2
1679211858959,301,2
1679211858966,300,2
1679211858974,297,2
1679211858981,298,2
1679211858989,296,2
1679211858996,295,2
1679211859003,294,2
1679211859011,298,2
1679211859018,301,2
1679211859026,301,2
1679211859033,300,2
1679211859041,300,2
1679211859048,298,2
1679211859055,297,2
1679211859063,297,2
1679211859070,295,2
1679211859078,297,2
1679211859085,294,2
1679211859092,298,2
1679211859100,298,2
1679211859107,301,2
1679211859114,301,2
1679211859122,301,2
1679211859129,300,2
1679211859137,298,2
1679211859144,297,2
1679211859152,295,2
1679211859159,296,2
1679211859166,295,2
1679211859174,294,2
1679211859181,295,2
1679211859189,301,2
1679211859196,303,2
1679211859203,303,2
1679211859211,303,2
1679211859218,302,2
1679211859226,300,2
1679211859233,297,2
1679211859241,290,2
1679211859248,292,2
1679211859255,294,2
1679211859263,297,2
1679211859270,300,2
1679211859278,302,2
1679211859285,304,2
1679211859292,303,2
1679211859300,302,2
1679211859307,301,2
1679211859315,299,2
1679211859322,294,2
1679211859329,294,2
1679211859337,293,2
1679211859344,294,2
1679211859352,295,2
1679211859359,300,2
1679211859366,302,2
1679211859374,302,2
1679211859381,300,2
1679211859389,300,2
1679211859396,298,2
1679211859404,296,2
1679211859411,296,2
1679211859418,293,2
1679211859426,296,2
1679211859433,299,2
1679211859441,301,2
1679211859448,303,2
1679211859455,303,2
1679211859463,299,2
1679211859470,295,2
1679211859478,294,2
1679211859485,296,2
1679211859492,298,2
1679211859500,301,2
1679211859507,298,2
1679211859515,301,2
1679211859522,302,2
1679211859529,302,2
1679211859537,300,2
1679211859544,296,2
1679211859552,293,2
1679211859559,296,2
1679211859566,295,2
1679211859574,293,2
1679211859581,297,2
1679211859589,301,2
1679211859596,304,2
1679211859604,304,2
1679211859611,302,2
1679211859618,300,2
1679211859626,299,2
1679211859633,300,2
1679211859641,299,2
1679211859648,292,2
1679211859655,293,2
1679211859663,292,2
1679211859670,295,2
1679211859678,299,2
1679211859685,297,2
1679211859692,298,2
1679211859700,299,2
1679211859707,300,2
1679211859715,300,2
1679211859722,301,2
1679211859729,301,2
1679211859737,299,2
1679211859744,294,2
1679211859752,292,2
1679211859759,290,2
1679211859766,294,2
1679211859774,297,2
1679211859781,297,2
1679211859789,299,2
1679211859796,302,2
1679211859804,302,2
1679211859811,301,2
1679211859818,299,2
1679211859826,296,2
1679211859833,296,2
1679211859841,292,2
1679211859848,291,2
1679211859855,292,2
1679211859863,297,2
1679211859870,298,2
1679211859878,300,2
1679211859885,301,2
1679211859893,301,2
1679211859900,300,2
1679211859907,299,2
1679211859915,296,2
1679211859922,293,2
1679211859930,295,2
1679211859937,296,2
1679211859944,300,2
1679211859952,301,2
1679211859959,303,2
1679211859967,301,2
1679211859974,298,2
1679211859981,295,2
1679211859989,293,2
1679211859996,294,2
1679211860004,295,2
1679211860011,298,2
1679211860018,301,2
1679211860026,302,2
1679211860033,301,2
1679211860041,300,2
1679211860048,300,2
1679211860056,297,2
1679211860063,296,2
1679211860070,297,2
1679211860078,295,2
1679211860085,293,2
1679211860093,294,2
1679211860100,298,2
1679211860107,299,2
1679211860115,300,2
1679211860122,300,2
1679211860130,296,2
1679211860137,293,2
1679211860144,293,2
1679211860152,295,2
1679211860159,297,2
1679211860167,294,2
1679211860174,294,2
1679211860181,295,2
1679211860189,299,2
1679211860196,300,2
1679211860204,299,2
1679211860211,301,2
1679211860218,301,2
1679211860226,294,2
1679211860233,295,2
1679211860241,295,2
1679211860248,295,2
1679211860256,299,2
1679211860263,301,2
1679211860270,302,2
1679211860278,304,2
1679211860285,304,2
1679211860293,302,2
1679211860300,301,2
1679211860307,299,2
1679211860315,296,2
1679211860322,294,2
1679211860330,292,2
1679211860337,297,2
1679211860344,297,2
1679211860352,299,2
1679211860359,302,2
1679211860367,301,2
1679211860374,301,2
1679211860381,300,2
1679211860389,298,2
1679211860396,299,2
1679211860404,297,2
1679211860411,294,2
1679211860419,294,2
1679211860426,297,2
1679211860433,299,2
1679211860441,301,2
1679211860448,303,2
1679211860456,301,2
1679211860463,298,2
1679211860470,299,2
1679211860478,298,2
1679211860485,300,2
1679211860493,301,2
1679211860500,299,2
1679211860507,296,2
1679211860515,298,2
1679211860522,297,2
1679211860530,297,2
1679211860537,296,2
1679211860545,295,2
1679211860552,297,2
1679211860559,301,2
1679211860567,303,2
1679211860574,302,2
1679211860581,302,2
1679211860589,303,2
1679211860596,302,2
1679211860604,301,2
1679211860611,294,2
1679211860618,288,2
1679211860626,296,2
1679211860633,296,2
1679211860641,298,2
1679211860648,300,2
1679211860656,300,2
1679211860663,302,2
1679211860670,303,2
1679211860678,303,2
1679211860685,302,2
1679211860693,299,2
1679211860700,297,2
1679211860707,292,2
1679211860715,295,2
1679211860722,296,2
1679211860730,299,2
1679211860737,299,2
1679211860744,300,2
1679211860752,301,2
1679211860759,299,2
1679211860767,294,2
1679211860774,297,2
1679211860782,294,2
1679211860789,295,2
1679211860796,298,2
1679211860804,300,2
1679211860811,301,2
1679211860819,303,2
1679211860826,302,2
1679211860833,300,2
1679211860841,296,2
1679211860848,297,2
1679211860856,293,2
1679211860863,290,2
1679211860870,294,2
1679211860878,295,2
1679211860885,299,2
1679211860893,301,2
1679211860900,302,2
1679211860908,302,2
1679211860915,302,2
1679211860922,299,2
1679211860930,296,2
1679211860937,294,2
1679211860945,293,2
1679211860952,294,2
1679211860959,299,2
1679211860967,301,2
1679211860974,301,2
1679211860982,300,2
1679211860989,298,2
1679211860996,297,2
1679211861004,293,2
1679211861011,293,2
1679211861019,295,2
1679211861026,297,2
1679211861033,300,2
1679211861041,301,2
1679211861048,302,2
1679211861056,301,2
1679211861063,299,2
1679211861070,297,2
1679211861078,298,2
1679211861085,298,2
1679211861093,296,2
1679211861100,295,2
1679211861108,295,2
1679211861115,298,2
1679211861122,300,2
1679211861130,300,2
1679211861137,298,2
1679211861145,297,2
1679211861152,299,2
1679211861159,301,2
1679211861167,298,2
1679211861174,293,2
1679211861182,292,2
1679211861189,295,2
1679211861196,301,2
1679211861204,302,2
1679211861211,303,2
1679211861219,302,2
1679211861226,299,2
1679211861233,294,2
1679211861241,296,2
1679211861248,296,2
1679211861256,297,2
1679211861263,299,2
1679211861271,300,2
1679211861278,299,2
1679211861285,299,2
1679211861293,300,2
1679211861300,293,2
1679211861308,297,2
1679211861315,299,2
1679211861322,300,2
1679211861330,302,2
1679211861337,301,2
1679211861345,302,2
1679211861352,299,2
1679211861360,297,2
1679211861367,294,2
1679211861374,294,2
1679211861382,295,2
1679211861389,299,2
1679211861396,300,2
1679211861404,302,2
1679211861411,299,2
1679211861419,299,2
1679211861426,301,2
1679211861433,301,2
1679211861441,296,2
1679211861448,294,2
1679211861456,297,2
1679211861463,296,2
1679211861470,298,2
1679211861478,301,2
1679211861485,297,2
1679211861493,295,2
1679211861500,298,2
1679211861508,299,2
1679211861515,298,2
1679211861523,293,2
1679211861530,300,2
1679211861537,304,2
1679211861545,297,2
1679211861552,300,2
1679211861560,305,2
1679211861567,304,2
1679211861574,297,2
1679211861582,292,2
1679211861589,293,2
1679211861597,296,2
1679211861604,300,2
1679211861611,299,2
1679211861619,300,2
1679211861626,302,2
1679211861634,297,2
1679211861641,296,2
1679211861648,299,2
1679211861656,295,2
1679211861663,295,2
1679211861671,298,2
1679211861678,297,2
1679211861685,300,2
1679211861693,304,2
1679211861700,303,2
1679211861708,298,2
1679211861715,292,2
1679211861723,289,2
1679211861730,292,2
1679211861737,297,2
1679211861745,298,2
1679211861752,297,2
1679211861760,300,2
1679211861767,297,2
1679211861774,286,2
1679211861782,290,2
1679211861789,297,2
1679211861797,293,2
1679211861804,297,2
1679211861811,303,2
1679211861819,305,2
1679211861826,297,2
1679211861834,300,2
1679211861841,297,2
1679211861848,287,2
1679211861856,297,2
1679211861863,299,2
1679211861871,300,2
1679211861878,297,2
1679211861885,295,2
1679211861893,285,2
1679211861900,287,2
1679211861908,298,2
1679211861915,301,2
1679211861923,304,2
1679211861930,305,2
1679211861937,304,2
1679211861945,295,2
1679211861952,293,2
1679211861960,292,2
1679211861967,296,2
1679211861974,297,2
1679211861982,296,2
1679211861989,294,2
1679211861997,301,2
1679211862004,300,2
1679211862011,298,2
1679211862019,301,2
1679211862026,302,2
1679211862034,292,2
1679211862041,295,2
1679211862048,294,2
1679211862056,297,2
1679211862063,301,2
1679211862071,300,2
1679211862078,298,2
1679211862085,293,2
1679211862093,299,2
1679211862100,299,2
1679211862108,303,2
1679211862115,302,2
1679211862123,298,2
1679211862130,296,2
1679211862137,293,2
1679211862145,295,2
1679211862152,296,2
1679211862160,296,2
1679211862167,296,2
1679211862174,304,2
1679211862182,307,2
1679211862189,306,2
1679211862197,306,2
1679211862204,303,2
1679211862211,293,2
1679211862219,290,2
1679211862226,289,2
1679211862234,293,2
1679211862241,297,2
1679211862248,303,2
1679211862256,300,2
1679211862263,297,2
1679211862271,301,2
1679211862278,303,2
1679211862286,300,2
1679211862293,300,2
1679211862300,301,2
1679211862308,294,2
1679211862315,293,2
1679211862323,296,2
1679211862330,297,2
1679211862337,302,2
1679211862345,306,2
1679211862352,306,2
1679211862360,306,2
1679211862367,303,2
1679211862375,302,2
1679211862382,300,2
1679211862389,287,2
1679211862397,288,2
1679211862404,297,2
1679211862412,299,2
1679211862419,300,2
1679211862426,300,2
1679211862434,303,2
1679211862441,303,2
1679211862449,303,2
1679211862456,299,2
1679211862463,296,2
1679211862471,293,2
1679211862478,289,2
1679211862486,295,2
1679211862493,301,2
1679211862500,303,2
1679211862508,302,2
1679211862515,303,2
1679211862523,305,2
1679211862530,302,2
1679211862537,297,2
1679211862545,290,2
1679211862552,289,2
1679211862560,296,2
1679211862567,301,2
1679211862575,302,2
1679211862582,303,2
1679211862589,300,2
1679211862597,300,2
1679211862604,299,2
1679211862612,302,2
1679211862619,302,2
1679211862626,296,2
1679211862634,297,2
1679211862641,298,2
1679211862649,294,2
1679211862656,298,2
1679211862663,302,2
1679211862671,299,2
1679211862678,300,2
1679211862686,303,2
1679211862693,301,2
1679211862700,302,2
1679211862708,300,2
1679211862715,297,2
1679211862723,296,2
1679211862730,300,2
1679211862737,299,2
1679211862745,299,2
1679211862752,302,2
1679211862760,303,2
1679211862767,299,2
1679211862775,298,2
1679211862782,297,2
1679211862789,293,2
1679211862797,294,2
1679211862804,297,2
1679211862812,299,2
1679211862819,303,2
1679211862826,304,2
1679211862834,303,2
1679211862841,303,2
1679211862849,301,2
1679211862856,296,2
1679211862863,297,2
1679211862871,295,2
1679211862878,296,2
1679211862886,299,2
1679211862893,301,2
1679211862900,298,2
1679211862908,297,2
1679211862915,299,2
1679211862923,299,2
1679211862930,300,2
1679211862938,301,2
1679211862945,300,2
1679211862952,298,2
1679211862960,298,2
1679211862967,296,2
1679211862975,297,2
1679211862982,298,2
1679211862989,298,2
1679211862997,299,2
1679211863004,300,2
1679211863012,300,2
1679211863019,299,2
1679211863027,300,2
1679211863034,297,2
1679211863041,295,2
1679211863049,290,2
1679211863056,296,2
1679211863064,299,2
1679211863071,300,2
1679211863078,299,2
1679211863086,301,2
1679211863093,302,2
1679211863101,303,2
1679211863108,298,2
1679211863115,295,2
1679211863123,296,2
1679211863130,292,2
1679211863138,294,2
1679211863145,301,2
1679211863152,301,2
1679211863160,301,2
1679211863167,300,2
1679211863175,301,2
1679211863182,300,2
1679211863190,300,2
1679211863197,298,2
1679211863204,295,2
1679211863212,294,2
1679211863219,298,2
1679211863227,298,2
1679211863234,298,2
1679211863241,301,2
1679211863249,302,2
1679211863256,300,2
1679211863264,299,2
1679211863271,301,2
1679211863278,297,2
1679211863286,291,2
1679211863293,297,2
1679211863301,302,2
1679211863308,302,2
1679211863315,302,2
1679211863323,301,2
1679211863330,301,2
1679211863338,302,2
1679211863345,302,2
1679211863352,298,2
1679211863360,297,2
1679211863367,293,2
1679211863375,295,2
1679211863382,296,2
1679211863390,297,2
1679211863397,300,2
1679211863404,303,2
1679211863412,301,2
1679211863419,301,2
1679211863427,301,2
1679211863434,298,2
1679211863441,296,2
1679211863449,293,2
1679211863456,297,2
1679211863464,299,2
1679211863471,295,2
1679211863478,298,2
1679211863486,300,2
1679211863493,301,2
1679211863501,302,2
1679211863508,300,2
1679211863515,299,2
1679211863523,297,2
1679211863530,295,2
1679211863538,296,2
1679211863545,300,2
1679211863552,300,2
1679211863560,299,2
1679211863567,299,2
1679211863575,298,2
1679211863582,300,2
1679211863590,300,2
1679211863597,297,2
1679211863604,299,2
1679211863612,300,2
1679211863619,300,2
1679211863627,299,2
1679211863634,298,2
1679211863641,297,2
1679211863649,298,2
1679211863656,298,2
1679211863664,295,2
1679211863671,298,2
1679211863678,300,2
1679211863686,301,2
1679211863693,302,2
1679211863701,301,2
1679211863708,300,2
1679211863715,296,2
1679211863723,289,2
1679211863730,293,2
1679211863738,291,2
1679211863745,292,2
1679211863752,297,2
1679211863760,300,2
1679211863767,298,2
1679211863775,297,2
1679211863782,299,2
1679211863790,296,2
1679211863797,293,2
1679211863804,295,2
1679211863812,297,2
1679211863819,293,2
1679211863827,295,2
1679211863834,297,2
1679211863841,294,2
1679211863849,295,2
1679211863856,298,2
1679211863864,301,2
1679211863871,299,2
1679211863878,299,2
1679211863886,300,2
1679211863893,296,2
1679211863901,295,2
1679211863908,300,2
1679211863915,296,2
1679211863923,294,2
1679211863930,299,2
1679211863938,302,2
1679211863945,301,2
1679211863953,297,2
1679211863960,298,2
1679211863967,301,2
1679211863975,301,2
1679211863982,298,2
1679211863990,293,2
1679211863997,295,2
1679211864004,299,2
1679211864012,300,2
1679211864019,296,2
1679211864027,295,2
1679211864034,294,2
1679211864042,297,2
1679211864049,297,2
1679211864056,299,2
1679211864064,301,2
1679211864071,302,2
1679211864078,300,2
1679211864086,298,2
1679211864093,299,2
1679211864101,299,2
1679211864108,297,2
1679211864116,296,2
1679211864123,299,2
1679211864130,301,2
1679211864138,298,2
1679211864145,299,2
1679211864153,301,2
1679211864160,299,2
1679211864167,297,2
1679211864175,297,2
1679211864182,293,2
1679211864190,295,2
1679211864197,298,2
1679211864205,299,2
1679211864212,299,2
1679211864219,302,2
1679211864227,303,2
1679211864234,301,2
1679211864242,299,2
1679211864249,296,2
1679211864256,294,2
1679211864264,297,2
1679211864271,294,2
1679211864279,297,2
1679211864286,298,2
1679211864293,300,2
1679211864301,303,2
1679211864308,300,2
1679211864316,302,2
1679211864323,303,2
1679211864330,299,2
1679211864338,294,2
1679211864345,298,2
1679211864353,298,2
1679211864360,294,2
1679211864367,299,2
1679211864375,296,2
1679211864382,300,2
1679211864390,301,2
1679211864397,299,2
1679211864405,302,2
1679211864412,300,2
1679211864419,298,2
1679211864427,295,2
1679211864434,297,2
1679211864442,294,2
1679211864449,295,2
1679211864456,298,2
1679211864464,301,2
1679211864471,301,2
1679211864479,299,2
1679211864486,300,2
1679211864493,302,2
1679211864501,302,2
1679211864508,298,2
1679211864516,298,2
1679211864523,291,2
1679211864530,291,2
1679211864538,293,2
1679211864545,299,2
1679211864553,300,2
1679211864560,301,2
1679211864567,298,2
1679211864575,292,2
1679211864582,295,2
1679211864590,298,2
1679211864597,301,2
1679211864605,301,2
1679211864612,296,2
1679211864619,295,2
1679211864627,298,2
1679211864634,299,2
1679211864642,290,2
1679211864649,292,2
1679211864657,295,2
1679211864664,297,2
1679211864671,299,2
1679211864679,299,2
1679211864686,298,2
1679211864694,294,2
1679211864701,299,2
1679211864708,301,2
1679211864716,296,2
1679211864723,296,2
1679211864730,296,2
1679211864738,292,2
1679211864745,291,2
1679211864753,297,2
1679211864760,297,2
1679211864767,300,2
1679211864775,303,2
1679211864782,305,2
1679211864790,303,2
1679211864797,302,2
1679211864805,296,2
1679211864812,295,2
1679211864819,293,2
1679211864827,295,2
1679211864834,294,2
1679211864842,300,2
1679211864849,300,2
1679211864856,300,2
1679211864864,301,2
1679211864871,299,2
1679211864879,299,2
1679211864886,295,2
1679211864893,291,2
1679211864901,295,2
1679211864908,296,2
1679211864916,297,2
1679211864923,299,2
1679211864931,300,2
1679211864938,301,2
1679211864945,301,2
1679211864953,296,2
1679211864960,294,2
1679211864968,297,2
1679211864975,299,2
1679211864982,299,2
1679211864990,296,2
1679211864997,298,2
1679211865005,298,2
1679211865012,296,2
1679211865019,293,2
1679211865027,297,2
1679211865034,298,2
1679211865042,300,2
1679211865049,301,2
1679211865057,300,2
1679211865064,300,2
1679211865071,298,2
1679211865079,300,2
1679211865086,300,2
1679211865094,293,2
1679211865101,295,2
1679211865108,294,2
1679211865116,292,2
1679211865123,299,2
1679211865131,300,2
1679211865138,301,2
1679211865145,303,2
1679211865153,303,2
1679211865160,303,2
1679211865168,300,2
1679211865175,298,2
1679211865182,291,2
1679211865190,287,2
1679211865197,289,2
1679211865205,294,2
1679211865212,300,2
1679211865219,303,2
1679211865227,304,2
1679211865234,304,2
1679211865242,303,2
1679211865249,302,2
1679211865256,300,2
1679211865264,293,2
1679211865271,289,2
1679211865279,292,2
1679211865286,294,2
1679211865294,298,2
1679211865301,299,2
1679211865308,299,2
1679211865316,300,2
1679211865323,301,2
1679211865331,300,2
1679211865338,301,2
1679211865345,300,2
1679211865353,296,2
1679211865360,296,2
1679211865368,295,2
1679211865375,293,2
1679211865382,295,2
1679211865390,298,2
1679211865397,299,2
1679211865405,299,2
1679211865412,298,2
1679211865420,298,2
1679211865427,298,2
1679211865434,301,2
1679211865442,298,2
1679211865449,299,2
1679211865457,298,2
1679211865464,298,2
1679211865471,298,2
1679211865479,295,2
1679211865486,295,2
1679211865494,294,2
1679211865501,298,2
1679211865508,302,2
1679211865516,302,2
1679211865523,302,2
1679211865531,301,2
1679211865538,299,2
1679211865545,300,2
1679211865553,296,2
1679211865560,295,2
1679211865568,293,2
1679211865575,296,2
1679211865582,298,2
1679211865590,299,2
1679211865597,301,2
1679211865605,301,2
1679211865612,301,2
1679211865620,302,2
1679211865627,300,2
1679211865634,298,2
1679211865642,297,2
1679211865649,295,2
1679211865657,291,2
1679211865664,292,2
1679211865671,296,2
1679211865679,300,2
1679211865686,302,2
1679211865694,303,2
1679211865701,303,2
1679211865708,303,2
1679211865716,300,2
1679211865723,295,2
1679211865731,295,2
1679211865738,292,2
1679211865745,289,2
1679211865753,295,2
1679211865760,300,2
1679211865768,303,2
1679211865775,303,2
1679211865782,304,2
1679211865790,302,2
1679211865797,301,2
1679211865805,300,2
1679211865812,296,2
1679211865820,290,2
1679211865827,290,2
1679211865834,293,2
1679211865842,295,2
1679211865849,299,2
1679211865857,301,2
1679211865864,301,2
1679211865872,300,2
1679211865879,300,2
1679211865886,300,2
1679211865894,293,2
1679211865901,295,2
1679211865908,295,2
1679211865916,294,2
1679211865923,296,2
1679211865931,299,2
1679211865938,295,2
1679211865946,296,2
1679211865953,297,2
1679211865960,301,2
1679211865968,300,2
1679211865975,300,2
1679211865983,302,2
1679211865990,300,2
1679211865997,296,2
1679211866005,294,2
1679211866012,294,2
1679211866020,298,2
1679211866027,300,2
1679211866034,300,2
1679211866042,302,2
1679211866049,302,2
1679211866057,301,2
1679211866064,301,2
1679211866072,297,2
1679211866079,295,2
1679211866086,297,2
1679211866094,295,2
1679211866101,293,2
1679211866109,295,2
1679211866116,298,2
1679211866123,300,2
1679211866131,300,2
1679211866138,299,2
1679211866146,299,2
1679211866153,296,2
1679211866160,299,2
1679211866168,295,2
1679211866175,295,2
1679211866183,297,2
1679211866190,299,2
1679211866197,298,2
1679211866205,299,2
1679211866212,300,2
1679211866220,299,2
1679211866227,299,2
1679211866234,293,2
1679211866242,293,2
1679211866249,296,2
1679211866257,296,2
1679211866264,296,2
1679211866272,300,2
1679211866279,302,2
1679211866286,303,2
1679211866294,301,2
1679211866301,299,2
1679211866309,299,2
1679211866316,293,2
1679211866323,295,2
1679211866331,296,2
1679211866338,297,2
1679211866346,300,2
1679211866353,300,2
1679211866360,301,2
1679211866368,302,2
1679211866375,299,2
1679211866383,299,2
1679211866390,294,2
1679211866397,292,2
1679211866405,295,2
1679211866412,299,2
1679211866420,301,2
1679211866427,302,2
1679211866434,301,2
1679211866442,300,2
1679211866449,297,2
1679211866457,292,2
1679211866464,292,2
1679211866472,295,2
1679211866479,300,2
1679211866486,301,2
1679211866494,300,2
1679211866501,299,2
1679211866509,301,2
1679211866516,300,2
1679211866524,300,2
1679211866531,299,2
1679211866538,297,2
1679211866546,295,2
1679211866553,297,2
1679211866561,300,2
1679211866568,301,2
1679211866575,301,2
1679211866583,301,2
1679211866590,299,2
1679211866597,297,2
1679211866605,297,2
1679211866612,297,2
1679211866620,298,2
1679211866627,295,2
1679211866635,296,2
1679211866642,295,2
1679211866649,297,2
1679211866657,296,2
1679211866664,300,2
1679211866672,299,2
1679211866679,297,2
1679211866686,299,2
1679211866694,298,2
1679211866701,295,2
1679211866709,298,2
1679211866716,299,2
1679211866724,296,2
1679211866731,296,2
1679211866738,299,2
1679211866746,299,2
1679211866753,298,2
